Emg_1_EMGenv,Emg_2_EMGenv,Emg_3_EMGenv,Emg_4_EMGenv,Emg_5_EMGenv,Emg_6_EMGenv,Emg_7_EMGenv,Emg_8_EMGenv,Emg_9_EMGenv
16.309350256738146,20.07309790646633,-51.17973717199955,-131.07212463586404,6.992988322985898,3.3604715434902865,-112.79998445795991,-48.51154832159503,-53.97711311046399
16.5647976944465,20.31002053462183,-50.148774161988705,-128.8667473805645,7.50063915726132,3.8936276135944192,-110.87315929307094,-47.36668943230991,-52.745917958465725
16.818602178496352,20.545204045275486,-49.12090294005883,-126.66685251284166,8.005803364737252,4.4240885689828415,-108.95129707780384,-46.225383265657044,-51.51864862190292
17.070722818314852,20.778607230027315,-48.0962404313947,-124.47268368995643,8.508409988644603,4.951781061901426,-107.03461072999684,-45.08776418413981,-50.295448216200406
17.321118972227207,21.010189154241168,-47.07490291057395,-122.28448339411973,9.008388479055574,5.476632220978221,-105.12331210687671,-43.95396585261644,-49.07645905989425
17.569750259409908,21.239909170241905,-46.05700597145068,-120.10249287092506,9.50566871260643,5.998569671994838,-103.21761195147761,-42.82412120337156,-47.86182263738434
17.816576571786847,21.467726930443558,-45.04266449729746,-117.92695206828067,10.00018101212135,6.51752155852159,-101.31771983949908,-41.698362401447994,-46.651679561995174
18.061558085860167,21.693602400396827,-44.031992631220916,-115.75809957587133,10.491856166126862,7.03341656240429,-99.42384412662817,-40.57682081025681,-45.44616953936431
18.30465527446808,21.91749587174534,-43.025103746865774,-113.59617256517862,10.980625448246812,7.546183924091072,-97.53619189634976,-39.459626957482136,-44.245431331177045
18.545828918462224,22.139367975080802,-42.02211041942182,-111.44140673008769,11.466420636468134,8.05575346278794,-95.65496890826859,-38.34691050129684,-43.049602719264705
18.785040118297513,22.35917969268773,-41.02312439694777,-109.29403622810693,11.949174032267853,8.562055596431987,-93.78037954696617,-37.238800196904755,-41.85882047008336
19.02225030552764,22.576892371169194,-40.02825657202581,-107.15429362222679,12.428818479591945,9.065021361471366,-91.9126267714153,-36.13542386342451,-40.673220299589445
19.257421254199674,22.792467733945564,-39.03761695376003,-105.02240982344291,12.905287383676672,9.564582432441188,-90.05191206497395,-35.036908351129966,-39.49293683852844
19.490515092141248,23.005867893619047,-38.05131464013181,-102.89861403396833,13.378514729703117,10.060671141324594,-88.19843538598072,-33.94337950906165,-38.31810359815244
19.721494312133917,23.217055364197346,-37.06945779072476,-100.78313369115888,13.848435101275681,10.553220496688478,-86.35239511897302,-32.85496215302364,-37.148852936382234
19.95032178296638,23.42599307317015,-36.09215359983163,-98.67619441217514,14.314983698715382,11.042164202583518,-84.51398802654863,-31.771780033979784,-35.98531602442914
20.17696076036148,23.63264437343249,-35.119508269954984,-96.57801993940318,14.778096357158777,11.527436677198509,-82.68340920189065,-30.69395580686273,-34.82762281389124
20.401374897771003,23.836973055049153,-34.151626985713364,-94.48883208665572,15.237709564453482,12.008973071259474,-80.86085202197519,-29.62161099980879,-33.67590200433799
20.623528257032707,24.038943356854517,-33.188613888163914,-92.40885068617322,15.693760478841293,12.486709286164471,-79.04650810147977,-28.55486598383085,-32.53028101139656
20.843385318884188,24.238519977882365,-32.23057204955194,-90.33829353644366,16.146186946420027,12.960581991845464,-77.2405672474098,-27.493839942940795,-31.390885935352184
21.060910993328616,24.43566808862021,-31.27760344849736,-88.27737635085789,16.59492751837526,13.430528644348968,-75.44321741445879,-26.438650844732507,-30.25784153027447
21.276070629847688,24.630353342082866,-30.329808945627473,-86.22631270721715,17.039921467973322,13.896487503127469,-73.65464466111759,-25.38941541143598,-29.131271173680723
21.488830027457634,24.82254188470044,-29.387288259664814,-84.18531399810833,17.481108807307,14.358397648033913,-71.87503310654722,-24.346249091452698,-28.011296836747114
21.699155444604568,25.01220036701579,-28.45013994397829,-82.15458938216226,17.91843030378578,14.816198996011662,-70.10456488822894,-23.30926603138221,-26.898039055077692
21.907013608895966,25.199295954186866,-27.518461363605248,-80.13434573620954,18.351827496362738,15.26983231747244,-68.34342012040473,-22.278579048549332,-25.79161690004079
22.112371726665504,25.3837963362893,-26.59234867275148,-78.12478760834786,18.781242711490815,15.719239252355067,-66.5917768533206,-21.254299604041027,-24.692147950681804
22.315197492368625,25.565669738414798,-25.671896792775687,-76.12611717193325,19.206619078801822,16.164362325858203,-64.84981103328418,-20.236537776261404,-23.599748266220892
22.51545909780639,25.744884930560712,-24.75719939066445,-74.13853418050701,19.62790054650221,16.605144963841113,-63.11769646354756,-19.22540223501268,-22.51453235914341
22.71312524117512,25.92141123730625,-23.848348858003384,-72.1622359236686,20.045031896480264,17.04153150788724,-61.39560476602482,-18.22100021610916,-21.436613168890315
22.90816513593938,26.095218547270907,-22.94543629044982,-70.19741718390429,20.457958759119656,17.473467230026294,-59.68370534385341,-17.22343749653084,-20.366102036155187
23.10054851952575,26.266277322350824,-22.04855146771212,-68.24427019438083,20.86662762781464,17.900898347111056,-57.982165344807385,-16.232818370122853,-19.303108677793773
23.290245661835048,26.43455860672929,-21.157782834040386,-66.30298459771258,21.270985873182184,18.323772034845422,-56.29114962557027,-15.249245623846727,-18.247741162351492
23.47722737357071,26.600034035657842,-20.273217479233008,-64.37374740571053,21.67098175696641,18.742036441460375,-54.61082071687473,-14.272820514589094,-17.200105886213752
23.66146501438106,26.7626758440047,-19.39494112016324,-62.45674296012095,22.066564445630735,19.155640701034706,-52.94133878951591,-13.303642746533404,-16.160307550383653
23.84293050081338,26.922456874567658,-18.523038082829622,-60.552152894361114,22.457684023633185,19.56453494645733,-51.282861621244855,-12.341810449099686,-15.128449137891142
24.02159631407772,27.079350586148514,-17.657591284933837,-58.660156096259314,22.844291506380337,19.96867032202808,-49.635544564547665,-11.387420155457077,-14.104631891837506
24.197435507618533,27.233331061386433,-16.798682218989317,-56.780928671805746,23.226338852855708,20.367998995694,-47.99954051531555,-10.44056678161341,-13.088955294078671
24.37042171449228,27.384373014347656,-15.946390935963715,-54.91464390992106,23.603778977918154,20.762474170918175,-46.37499988241035,-9.501343606085785,-12.08151704455052
24.540529154549255,27.53245179786915,-15.100796029458044,-53.06147224824848,23.976565764266045,21.152050098178385,-44.76207055812957,-8.569842250155805,-11.082413041239167
24.707732641418037,27.67754341065367,-14.261974620425153,-51.22158123997526,24.344654074063044,21.5366820860931,-43.16089788957428,-7.6461526587129,-10.091737360798875
24.872007589291005,27.819624504113822,-13.43000234242996,-49.39513552168898,24.707999760221245,21.916326512172496,-41.57162465092307,-6.7303630816890365,-9.109582239820137
25.033330019509364,27.958672388962864,-12.604953327453783,-47.582296782273566,25.066559677337477,22.290940833192284,-39.994391016614806,-5.82256005608788,-8.13603805675029
25.19167656694614,28.09466504154979,-11.786900192244916,-45.78322373284974,25.42029169227868,22.66048359518832,-38.42933453544247,-4.922828388611336,-7.171193314468901
25.347024486185624,28.22758110993659,-10.975914025217461,-43.99807207776409,25.76915469441237,23.024914443069992,-36.876590105560105,-4.031251138886214,-6.215134623519953
25.49935165749781,28.357399919715387,-10.172064373900305,-42.22699448663072,26.113108605478246,23.384194129850584,-35.33628995040475,-3.147909603293553,-5.267946686002835
25.648636592606312,28.48410147956327,-9.375419232937762,-40.470140567428935,26.45211438909735,23.73828452549307,-33.80856359553482,-2.2728832994028942,-4.32971228012394
25.794858440248273,28.607666486532842,-8.586045032643005,-38.7276568406601,26.786134059915433,24.0871486253699,-32.293537846386045,-1.4062499510135174,-3.4005122454105896
25.937996991524805,28.728076331076583,-7.804006628104905,-36.999686714566465,27.11513069237743,24.43075055833575,-30.79133676694572,-0.54808547380446,-2.480425468588847
26.07803268504048,28.845313101803406,-7.029367288848398,-35.286370461414194,27.439068429130433,24.76905559441221,-29.30208165934576,0.30153603840509413,-1.5695288701264032
26.21494661183047,28.959359589966056,-6.262188689048013,-33.58784519484238,27.75791248905266,25.10203015208362,-27.82589104437465,1.142542326783675,-0.6678973914411981
26.34872052007415,29.070199293678165,-5.502530898293858,-31.90424484827895,28.071629174906462,25.429641805203254,-26.362880642908188,1.9748629800025588,0.22439601722421879
26.47933681959409,29.177816421860225,-4.750452372908974,-30.235700154423874,28.380185880613706,25.751859289509138,-24.91316335825873,2.798429446137251,1.107280408263223
26.60677858613944,29.282195897913986,-4.006009947816687,-28.582338625799224,28.68355109815246,26.06865250874884,-23.476849259442428,3.613175043955012,1.980686847501627
26.731029565452857,29.383323363125147,-3.269258828956308,-26.944284536365267,28.981694424074156,26.379992540412694,-22.0540455653636,4.419034973588292,2.8445484243315122
26.852074177120006,29.481185179794547,-2.5402525862453,-25.32165890420141,29.27458656564081,26.685851641074997,-20.644856629915388,5.215946326594143,3.6988002611838615
26.969897518200845,29.57576843409814,-1.8190431470858626,-23.71457947525044,29.56219934658177,26.986203251342694,-19.249383927995474,6.003848095399831,4.543379522341546
27.084485366641722,29.667060938676457,-1.1056807904137125,-22.123160708124104,29.84450571246977,27.281022000411046,-17.867726042435468,6.782681182135032,5.378225422094288
27.195824184467458,29.755051234954415,-0.4002141412866826,-20.54751375996786,30.121479735715933,27.570283710225866,-16.499978651842355,7.552388406851136,6.203279232237311
27.303901120752695,29.839728595192497,0.2973098339894762,-18.987746473382103,30.393096620183687,27.85396539925171,-15.146234519350225,8.312914515128332,7.018484288915504
27.408704014371867,29.9210830242707,0.9868458322009364,-17.443963364396915,30.659332705421495,28.13204528584551,-13.806583482280262,9.064206185071304,7.823785998815068
27.510221396527225,29.99910526120678,1.6683502170343385,-15.916265611497016,30.92016547051452,28.404502791234947,-12.481112442706834,9.806212033694525,8.619131844704846
27.608442493054337,30.073786780410426,2.3417810223572557,-14.404751045693297,31.17557353755566,28.671318542100966,-11.169905358927341,10.538882622698212,9.404471390329755
27.703357226504522,30.14511979267508,3.0070979549739323,-12.909514141637132,31.425536674736552,28.93247437276383,-9.873043237833325,11.26217046363612,10.179756284659042
27.794956218003712,30.21309724590896,3.66426239685979,-11.430646009773458,31.670035799059335,29.18795332697208,-8.59060412818016,11.976030022476392,10.944940265492273
27.883230788887108,30.27771282560688,4.313237406878332,-9.968234389528417,31.909052978670232,29.43773965929384,-7.322663114752423,12.680417723556776,11.699979162426084
27.968172962109026,30.33896095506453,4.953987721984213,-8.522363643527223,32.14257143481602,29.681818836109905,-6.069292313421795,13.37529195293556,12.444830899184804
28.04977546342716,30.396836795336664,5.586479757916376,-7.093114752837658,32.37057554342468,29.920177536208207,-4.830560867094168,14.0606130611397,13.179455495317972
28.128031722360486,30.45133624494078,6.210681609385215,-5.680565313234546,32.59305083631148,30.15280365097917,-3.6065349425424222,14.736343365311722,13.903815067267923
28.2029358729199,30.502455939307733,6.826563049757831,-4.284789532480355,32.80998400201162,30.37968628421162,-2.39727772812121,15.40244715075711,14.617873828810538
28.27448275411067,30.55019324998089,7.434095530245416,-2.9058582286169936,33.021362886240674,30.600815751488717,-1.2028494323599055,16.05889067189392,15.321598090872348
28.34266791020583,30.594546283565307,8.033252178596868,-1.5438388292637932,33.227176491984004,30.816183579183424,-0.02330728342970359,16.705642152606625,16.01495626072733
28.40748759078928,30.635513880428604,8.624007797302777,-0.19879537191653038,33.42741497921624,31.02578250305292,1.1412944705192682,17.342671786006164,16.697918840576772
28.468938750567684,30.673095613155066,9.206338861314013,1.1292114947578031,33.62206966425212,31.229606466431527,2.290904560155075,17.969951733598382,17.370458425515558
28.52701904894989,30.707291784754695,9.780223515279257,2.4401245086360257,33.81113301873,31.42765061802184,3.425474692899736,18.587456123863223,18.032549700888353
28.581726849392872,30.73810342662888,10.345641570305922,3.7338897908695907,33.99459866822965,31.619911309284173,4.544959550008302,19.19516105024735,18.684169439039046
28.633061218513248,30.765532296294463,10.902574500249091,5.010456841637963,34.17246139052642,31.806386091424823,5.649316782796396,19.79304456857316,19.32529649545704
28.68102192496378,30.789580874868054,11.4510054375332,6.269778534932272,34.34471711348384,31.98707371198424,6.738507008021897,20.381086693867566,19.955911804324
28.72560943807499,30.81025236431273,11.990919168511393,7.511811112377942,34.51136291258736,32.16197411102703,7.812493802426956,20.959269396614133,20.575998373465
28.766824926262423,30.827550684449495,12.522302128367643,8.736514176105802,34.67239700812202,32.33108841693651,8.871243696446886,21.52757659843223,21.185541278708175
28.804670255200516,30.84148046973594,13.045142395566794,9.943850680681802,34.82781876199693,32.494418941817244,9.914726167092688,22.085994167187103,21.78452765765729
28.839147985764413,30.852047065814954,13.559429685857767,11.133786924105976,34.97762867421962,32.65196917650942,10.942913630014203,22.634509911534693,22.372946702881862
28.870261371741158,30.859256525835974,14.065155345835256,12.306292537891569,35.1218283790234,32.80374378521937,11.955781430751212,23.173113574905265,22.950789654529704
28.8980143573118,30.86311560655159,14.562312346065127,13.461340476235463,35.26042064065074,32.949748599770786,12.95330783518033,23.70179682892995,23.518049792367062
28.922411574306235,30.863631764192093,15.050895273778796,14.598907004291185,35.393409348795934,33.089990613481405,13.93547401916597,24.22055326631429,24.07472242725182
28.943458339232844,30.86081315012059,15.530900325141838,15.718971685555706,35.52079951370993,33.224477974670044,14.902264057424047,24.729378393163,24.620804892045378
28.96116065008518,30.85466860627129,16.002325297102114,16.821517368381425,35.64259726097061,33.353219979799036,15.853664911607401,25.228269620760244,25.156296531969012
28.97552518292808,30.845207660373482,16.465169578822774,17.906530171624617,35.75880982592129,33.47622706625732,16.78966641762212,25.717226256809752,25.681198694410853
28.986559288265784,30.832440520963935,16.919434142705615,18.97399946944176,35.86944554778061,33.59351080478946,17.710261272184006,26.196249496139455,26.19551471818977
28.994270987194675,30.816378072190403,17.36512153501053,20.023917875245107,35.974513863426786,33.705083891576216,18.61544501862485,26.665342410875855,26.699249922282796
28.998668967343484,30.797031868409096,17.802235866077126,21.056281224828986,36.07402530085956,33.81096013997251,19.505216031958238,27.12450994009399,27.192411594023003
28.999762578603576,30.774414128579114,18.23078280015487,22.071088558678497,36.167991472343104,33.91115447190872,20.379575503214916,27.57375887894989,27.675008976775043
28.997561828652152,30.74853773045694,18.6507695448485,23.068342103472677,36.25642506723352,34.005682908961546,21.238527423058,28.01309786730312,28.147053257095504
28.992077378271148,30.71941620459435,19.062204840185522,24.048047252794625,36.339339844494404,34.09456256310043,22.082078564688533,28.442537377837777,28.608557551385385
28.983320536464525,30.687063728143347,19.465098947312732,25.0102125470616,36.41675062490432,34.17781162711619,22.910238466052256,28.86208970369048,29.05953689204215
28.971303255376625,30.65149511847175,19.859463636828778,25.954849652688324,36.48867328295987,34.25544936473807,23.723019411358713,29.27176894559438,29.50000821311876
28.956038125014278,30.612725826593515,20.24531217675976,26.881973340497055,36.55512473847819,34.327496100446005,24.520436411924212,29.671590998548215,29.92999033549731
28.93753836777537,30.570771930417763,20.622659320184983,27.791601463388112,36.616122947902554,34.39397320898468,25.30250718635035,30.061573538019555,30.34950395158506
28.91581783278659,30.525650127820732,20.991521292520055,28.68375493328471,36.67168689531519,34.45490310458614,26.069252140050242,30.441736005691588,30.75857160954118
28.890890990053176,30.47737772954482,21.35191577846459,29.558457697366087,36.721836583161156,34.510309229907676,26.820694344134797,30.812099594762767,31.157217697042743
28.86277292442379,30.42597265192906,21.703861908621782,30.41573671360315,36.76659302268751,34.560216044692005,27.55685951367189,31.172687234808947,31.545468424599253
28.831479329373565,30.371453409475215,22.04738024579722,31.255621925611116,36.80597822410213,34.60464901415642,28.277775985331306,31.52352357621744,31.923351808425313
28.797026500608574,30.313839107253617,22.382492770984307,32.078146236833824,36.840015186456604,34.64363459711813,28.983474694428676,31.864634974202662,32.29089765288142
28.759431329495257,30.253149433152824,22.70922286904369,32.883345484074525,36.868727887257805,34.677200233862656,29.673989151381686,32.1960494724129,32.648137532493024
28.718711296318265,30.189404649977167,23.027595314084326,33.67125841038809,36.89214127181265,34.705374333762585,30.349355417592093,32.51779678613773,32.99510477355822
28.674884463370372,30.122625587396072,23.337636254553676,34.441926637349646,36.91028124231084,34.72818626265357,31.009612080766836,32.829908285125654,33.33183443535426
28.627969467878263,30.052833633749035,23.6393731980446,35.19539463671471,36.92317464665025,34.74566632997483,31.65480022969172,33.13241697602156,33.65836329095342
28.577985514767775,29.98005072771001,23.932834995826493,35.93170970148585,36.93084926700998,34.75784577568086,32.284963428471045,33.425357484433455,33.97472980765821
28.52495236927226,29.90429934981504,24.21805182710824,36.6509219164009,36.93333380817631,34.76475675693143,32.90014769024668,33.708766036637975,34.280974127066415
28.468890349387635,29.82560251385672,24.49505518304053,37.3530841278576,36.93065788562724,34.76643233456678,33.50040145041026,33.982680440934125,34.577138044776156
28.40982031817769,29.74398375814915,24.763877850465107,38.03825191328962,36.92285201338144,34.76290645937497,34.08577553932203,34.2471400686547,34.86326498974105
28.34776367593305,29.65946713666692,25.02455389541851,38.70648355000888,36.90994759161739,34.754213958158395,34.65632315455018,34.50218583484471,35.13940000328575
28.282742352187356,29.572077210061657,25.27711864639781,39.35783998352919,36.891976894068826,34.740390519606485,35.212099832644306,34.74786017861607,35.40558971779225
28.21477879759413,29.48183903655979,25.521608677395907,39.99238479538605,36.86897305520235,34.721472679981474,35.75316342045669,34.98420704318795,35.66188233506737
28.143895975667842,29.388778162745233,25.758061790713985,40.610184170467996,36.84097005718369,34.697497808624476,36.27957404602515,35.21127185562187,35.90832760440226
28.070117354393105,29.292920614230912,25.986516999558745,41.21130686387453,36.808002716639145,34.668504093289044,36.79139408903126,35.42910150626127,36.144976800334994
27.993466897706075,29.19429288622326,26.207014510432096,41.7958241673163,36.77010667121982,34.634530525309636,37.28868815084784,35.63774432788541,36.371882700127465
27.91396905685258,29.0929219339841,26.419595705321,42.36380987507291,36.727318365976494,34.59561688461255,37.77152302418981,35.83725007458776,36.5890995609679
27.831648761627743,28.98883516319464,26.624303123695263,42.915340249524405,36.67967503955331,34.551803724577205,38.239967662382554,36.02766990038955,36.79668309691042
27.746531411501945,28.88206042022647,26.821180444320987,43.45049398627192,36.627214710208776,34.5031323567556,38.6940931482621,36.20905633759892,36.994690455562996
27.65864286663826,28.772625982324808,27.010272466897536,43.969352178863375,36.56997616167228,34.44964483545777,39.133972662721604,36.38146327492639,37.183180194535254
27.56800943880673,28.66056054770932,27.191625093526028,44.471998283139875,36.50799892884449,34.391383942211235,39.55968145291862,36.54494593536708,37.36221225765746
27.474657882200805,28.545893225597858,27.365285310017367,44.958518081218614,36.44132328334987,34.32839317010216,39.97129680015764,36.69956085386058,37.53184795098208
27.37861538416149,28.428653526158527,27.531301167047936,45.42899964512779,36.36999021894926,34.260716708006086,40.36889798746255,36.84536585473871,37.692149918579204
27.279909555814545,28.3088713503954,27.689721761171263,45.883533300109285,36.29404143682083,34.18839942471599,40.75256626685358,36.98242002897204,37.843182118137136
27.178568422626277,28.186576979973168,27.84059721569391,46.3222115876048,36.21351933071695,34.11148685297542,41.122384826343016,37.11078371122556,37.98500979637941
27.074620414883228,28.061801066985915,27.983978661423713,46.74512922794087,36.1284669720053,34.03002517342456,41.478438756664346,37.230518456733996,38.11769946430908
26.968094358101037,27.93457462367513,28.11991821729865,47.152383082728406,36.03892809460159,33.94406119846687,41.82081501774889,37.34168701800708,38.241318872291366
26.859019463367723,27.80492901210214,28.24846897090442,47.54407211699206,35.94494707980173,33.85364235606388,42.149602404964156,37.444353321375154,38.35593698498547
26.74742531762646,27.672895933779888,28.36968495888868,47.92029736104483,35.84656894102095,33.75881667346574,42.464891515127896,37.53858244338523,38.46162395613614
26.63334187390288,27.53850741926914,28.483621147279962,48.28116187212305,35.7438393084472,33.65963276088482,42.76677471231184,37.62444058705756,38.55845110323567
26.516799441481858,27.401795817743995,28.59033341171907,48.62677069579672,35.63680441361619,33.55613979511985,43.05534609344878,37.70199505801276,38.646490882066765
26.397828676038586,27.262793786531564,28.689878517610705,48.95723082717026,35.52551107391518,33.44838750313752,43.330701453756696,37.77131424047924,38.725816861136444
26.27646056972873,27.121534280630666,28.78231410020299,49.27265117188841,35.41000667702253,33.3364261456189,43.592938251993274,37.832467573190925,38.79650369601126
26.15272644124231,26.978050542214202,28.86769864460239,49.573142506962185,35.290339165289936,33.220306500477406,43.84215557555431,37.88552552518469,38.858627103563755
26.026657925825774,26.83237609011991,28.94609146573163,49.85881744142901,35.16655702007426,33.100079846355214,44.078454105429,37.930559571507246,38.912263836140234
25.898286965276874,26.684544709334087,29.01755268823777,50.12979037686188,35.038709246025505,32.97579794610489,44.301936081025296,37.9676421688409,38.957491655659325
25.767645797916714,26.534590440472773,29.082143226357914,50.38617746774153,34.90684535533763,32.84751303026275,44.51270526487818,37.99684673105741,38.99438930765114
25.634766948543227,26.382547569264855,29.1399247637495,50.6280965817059,34.7710153519686,32.715277780520445,44.71086690725356,38.018247604709295,39.023036495246394
25.499683218370418,26.228450616041474,29.190959733292384,50.855667259690605,34.63126971583612,32.579145313201124,44.89652771066033,38.03192004446761,39.043513853124836
25.362427674957466,26.072334325235982,29.23531129686955,51.06901067597452,34.487659386995254,32.43916916274646,45.06979579428299,38.037940188515286,39.055902921432114
25.22303364213182,25.914233654898613,29.27304332513334,51.268249598143754,34.340235749804194,32.295403265220536,45.23078065834727,38.03638503390488,39.06028611967419
25.08153468991031,25.75418376623004,29.304220377263896,51.45350834698772,34.189050617084206,32.14790194183665,45.37959314843075,38.027332411889454,39.05674672059806
24.93796462442221,25.592220013137744,29.3289076807265,51.624912756340464,34.0341562142797,31.996719882512945,45.51634541973032,38.01086096323529,39.045368824067786
24.792357477838177,25.4283779318192,29.347171111034264,51.78259013288049,33.87560516362426,31.84191212946251,45.641150901298396,37.98705011352493,39.02623733094414
24.644747498308817,25.262693230375657,29.359077171522667,51.92666921590185,33.7134504683186,31.6835340608237,45.75412426025947,37.95598004845897,38.99943791697666
24.495169139916722,25.095201778460275,29.364692973142173,52.05728013706932,33.547745496725895,31.521641374336156,45.85538136601858,37.91773168916486,38.965057006716236
24.34365705264553,24.925939596964284,29.364086214275225,52.17455438017013,33.37854396659025,31.356290071067924,45.94503925447271,37.8723866675209,38.92318174745659
24.190246072369796,24.754942847744662,29.357325160583702,52.27862474087482,33.20589992928371,31.187536439198972,46.02321609223643,37.82002730150349,38.873899983212674
24.03497121086912,24.58224782339685,29.344478624892854,52.3696252865191,33.029867754087256,31.015437037866327,46.09003114089263,37.76073657056546,38.81730022874398
23.877867645870065,24.407890937075877,29.32561594711769,52.44769131591899,32.850502112511144,30.840048681075885,46.145604721279355,37.694598091053386,38.75347164363053
23.718970711119315,24.231908712369155,29.300806974237553,52.51295931923073,32.66785796265971,30.661428421685848,46.19005817782321,37.621696091671325,38.68250400640927
23.55831588649144,24.05433777322425,29.27012204032467,52.56556693786735,32.48199053364582,30.479633535466682,46.22351384292973,37.542115388998795,38.6044876887784
23.39593878813462,23.875214833934645,29.23363194663231,52.605652924483245,32.292955310059995,30.29472150524232,46.246095001440935,37.45594136307014,38.51951362987708
23.231875158657566,23.694576689186626,29.19140794174809,52.63335710303782,32.100808016499144,30.106750005117277,46.25792585517041,37.36325993302268,38.427673310647805
23.0661608573608,23.51246020417023,29.14352170181781,52.64882032894939,31.905604602159844,29.91577688479422,46.259131487525664,37.26415753282072,38.329058728288615
22.898831850515535,23.32890230475722,29.09004531084522,52.652184449350294,31.707401225500806,29.721860153986462,46.249837828227584,37.158721087062375,38.22376237080222
22.729924201693088,23.14393996774888,29.03105124107289,52.64359226345371,31.506254238979285,29.52505796692964,46.23017161813666,37.04703798687617,38.111877191648844
22.559474062147977,22.957610211196467,28.96661233344942,52.62318748304285,31.302220173865997,29.32542860699688,46.20026037419522,36.92919606591404,37.993496584509614
22.387517661257615,22.769950084796882,28.89680177818799,52.591114693092685,31.095355725143104,29.123030471421576,46.160232354495086,36.80528357644739,37.868714358167175
22.214091297021454,22.58099666036632,28.821693095421253,52.54751931253449,30.885717736489568,28.91792205613178,46.11021652347971,36.675389165572604,37.73762471151001
22.03923132662252,22.3907870223944,28.741360115957384,52.49254755517304,30.673363185358227,28.71016194070019,46.05034251728959,36.53960185153248,37.60032220866686
21.862974157054023,22.199358258681258,28.65587696214212,52.42634639076636,30.45834916814886,28.49980877341354,45.980740609259996,36.398011000159556,37.45690175427748
21.6853562358138,22.00674745106012,28.5653180288314,52.34906350627751,30.24073288548134,28.286921256465128,45.90154167557919,36.250706301447515,37.30745856890591
21.506414041669252,21.812991666207626,28.46975796447923,52.26084726730794,30.02057162757291,28.07155813127407,45.812877161115914,36.09777774625659,37.15208816460216
21.326184075495394,21.618127946544252,28.369271652345237,52.16184667972159,29.797922759723562,27.85377816393492,45.71487904542421,35.93931560315868,36.990886320618365
21.144702851188505,21.4221933012271,28.263934191826312,52.052211351468934,29.57284370791334,27.633640130801055,45.60767980893365,35.77541039542787,36.8239490592849
20.96200688665791,21.22522469723715,28.153820879916616,51.93209145461966,29.34539194451534,27.411202804205146,45.491412399332894,35.60615287818183,36.6513726220523
20.778132694898254,21.02725905056318,28.039007192800227,51.801637687612896,29.11562497412807,27.186524938319938,45.366210198154384,35.43163401567952,36.47325344570435
20.593116775144644,20.82833321748439,27.91956876758045,51.661001237733444,28.883600319530757,26.959665255162577,45.23220698756769,35.251944958780406,36.28968813874777
20.40699560411293,20.62848398595367,27.79558138414982,51.510333743822436,28.649375507765132,26.73068243074549,45.08953691738894,35.06717702257038,36.10077345798365
20.219805627327368,20.4277480670836,27.667120947204744,51.34978725923059,28.413008056346985,26.49963508137679,44.93833447231363,34.87742166415934,35.906606285265845
20.031583250537828,20.226162086736856,27.534263468408557,51.17951421502204,28.17455545961082,26.266581750113133,44.77873443937982,34.68277046065533,35.70728360445121
19.842364831228604,20.02376257722304,27.397085048706757,50.99966738343667,27.93407517519082,26.03158089336767,44.610871875668636,34.48331508731983,35.50290247854658
19.652186670220892,19.820585969103515,27.255661860798003,50.810399841618604,27.691624610641227,25.79469086767589,44.434882076248854,34.27914729590915,35.29356002705718
19.46108500337088,19.61666858310611,27.110070131764488,50.61186493561825,27.447261110199136,25.555969916621912,44.25090054237225,34.070358893206055,35.07935340354123
19.269095993365365,19.41204662215122,26.960386125865018,50.4042162446755,27.201041941692573,25.315476157927748,44.059062949925995,33.857041719746306,34.86037977337498
19.07625572161672,19.206756163490937,26.806686127494213,50.18760754579098,26.95302428359673,25.073267570707877,43.85950511814848,33.63928762874414,34.63673629173268
18.882600180258986,19.000833150962748,26.649046424311056,49.96219277859247,26.703265212240996,24.829401982891522,43.65236297861468,33.417188465220974,34.40852008178561
18.688165264246777,18.7943133873592,26.487543290539925,49.72812601050316,26.451821689169464,24.58393705881482,43.43777254449687,33.19083604534123,34.17582821312434
18.49298676355864,18.587232526914978,26.322252970447195,49.48556140221865,26.198750548657404,24.336930286984998,43.21586988010661,32.9603221359593,33.93875768040814
18.297100355506434,18.379626067912753,26.153251661996336,49.234653173498806,25.944108485386163,24.08843896801862,42.98679107072357,32.72573843438134,33.69740538224547
18.100541597152212,18.171529345409095,25.98061550068439,48.97555556928112,25.687952042278752,23.83852020275589,42.75067219271677,32.48717654834557,33.45186810030917
17.903345917834088,17.962977524081634,25.804420543562614,48.70842282612141,25.430337598498433,23.587230880552852,42.507649283963346,32.2447279762246,33.20224247868996
17.7055486118024,17.754005591198677,25.62474275344386,48.43340913896795,25.171321357612317,23.334627667753292,42.25785831457018,31.998484087453264,32.94862500349189
17.50718483096747,17.544648349712393,25.441657983299404,48.15066862827488,24.910959335922136,23.08076699634198,42.00143515790328,31.748536103185216,32.69111198267285
17.30828957776025,17.334940411476584,25.255241960847602,47.86035530746022,24.649307350964033,22.825705052780894,41.738515561929866,31.494975077181504,32.42979952613349
17.108897698106937,17.12491619059008,25.06557027333685,47.56262305071425,24.38642101017925,22.569497767029972,41.469235120877755,31.237891876934196,32.16478352605769
16.90904387451876,16.914609896866665,24.87271835252501,47.25762556116333,24.122355699757524,22.312200801753768,41.19372924721659,30.977377165028035,31.896159637507452
16.70876261929785,16.704055529432388,24.676761459857687,46.9455163393942,23.85716657365482,22.053869541715397,40.9121331439653,30.713521380743007,31.624023259275244
16.50808826786032,16.49328687045116,24.477774671847286,46.62644865234388,23.590908542786973,21.79455908335906,40.624581777330036,30.446414721900574,31.348469514996353
16.307054972177358,16.2823374789793,24.275832865654955,46.30057550255971,23.323636264400765,21.534324224582306,40.33120984967663,30.176147126956103,31.069593234524
16.105696694335272,16.07124068494976,24.071010704877374,45.968049597834174,23.055404131623888,21.273219454699067,40.032151772841516,29.90280825734016,30.78748893556968
15.904047200215262,15.860029583286712,23.86338262554008,45.62902332121901,22.78626626319505,21.01129894459459,39.727541641784825,29.626487480050965,30.502250805611137
15.702140053293682,15.64873702815103,23.65302282229923,45.283648701422656,22.516276493375535,20.74861653707319,39.417513208589355,29.347273850500446,30.2139726840702
15.500008608563501,15.437395627317187,23.440005234853395,44.932077383595356,22.245488362043385,20.485225737399634,39.102199856808895,29.065256095615972,29.922748044762738
15.297686006577596,15.226037736682047,23.224403534566918,44.57446060050558,21.973955104971303,20.221179704034935,38.781734576169164,28.780522597199965,29.628669978622696
15.095205167614484,15.014695454905974,23.006291111306375,44.210949144111666,21.70172964428929,19.956531239567333,38.456249937624584,28.493161375549306,29.331831176702227
14.892598785967028,14.803400618186561,22.785741060491507,43.84169333753212,21.42886457913294,19.69133278183904,38.1258780687739,28.203260073336434,29.032323913449698
14.689899324354595,14.592184795165313,22.562826170361927,43.46684300741807,21.155412176478308,19.425636395269315,37.79075062963761,27.91090593975397,28.730240030267343
14.487139008459135,14.381079281967471,22.337618909460886,43.08654745673109,20.881424362164108,19.159493762374375,37.450998788799836,27.616185814924503,28.425670919350118
14.28434982158557,14.170115097375215,22.110191414337205,42.70095543792941,20.60695271210205,18.892956175484528,37.10675319991732,27.319186114577086,28.1187075078073
14.08156349944686,13.959322978134349,21.880615477466467,42.31021512656545,20.332048443675877,18.626074528658858,36.75814397859804,27.019992814991976,27.80944024206827
13.878811525073989,13.74873337439455,21.648962535392485,41.91447409529752,20.056762407329735,18.358899309797774,36.40530067965164,26.71869143821494,27.497959072573725
13.67612512385118,13.538376445283195,21.415303657089872,41.51387928831814,19.781145078346388,18.091480592953598,36.048352274713984,26.415367037542463,27.184353438753572
13.473535258676561,13.328282054612774,21.179709532548642,41.10857699620149,19.505246548815744,17.823868030839357,35.68742713024787,26.11010418327896,26.868712254292596
13.2710726252484,13.118479766721803,20.942250461581544,40.69871283117237,19.22911651979403,17.55611084753579,35.32265298592172,25.802986948767078,26.551123892684885
13.068767647477099,12.908998842449135,20.702996342854814,40.28443170279862,18.952804293653966,17.288257831396628,34.954156933368196,25.494098896692112,26.231676173077958
12.866650473022975,12.699868235241516,20.46201666314297,39.86587779410913,18.676358766626198,17.020357328152038,34.58206539532418,25.18352306566138,25.91045634640737
12.66475096895992,12.491116587394153,20.219380486808134,39.443194538139224,18.399828421532185,16.752457234210173,34.20650410515378,24.87134195705937,25.587551081822546
12.463098717564877,12.282772226424065,19.975156445504414,39.016524594905064,18.12326132070864,16.48460499015659,33.82759808675575,24.557637522179316,25.263046453404417
12.26172301223314,12.07486316157594,19.729412728107636,38.586009828808734,17.846705099123586,16.216847574451293,33.44547163485641,24.242491149631807,24.937027927175407
12.060652853519384,11.86741708046016,19.48221707087084,38.151791286475294,17.57020695768406,15.949231497323082,33.06024829568945,23.92598365303098,24.609580348402194
11.859916945304304,11.6604613458226,19.23363674780566,37.714009175023165,17.293813656735356,15.681802794860872,32.67205084806338,23.608195258958652,24.28078792919158
11.659543691086709,11.454022992445797,18.98373856128989,37.272802840768875,17.017571509751736,15.414607023301523,32.28100128481766,23.2892055952067,23.950734236379763
11.459561190400844,11.248128724181049,18.732588832901197,36.82831074836725,16.741526377218428,15.147689253513702,31.88722079466819,22.969093679297952,23.619502179715138
11.259997235358751,11.042804911110965,18.48025339447714,36.380670460387776,16.465723660704622,14.881094065677235,31.490829744442824,22.647937907285808,23.287174000334748
11.060879307317403,10.838077586841928,18.226797579401364,35.93001861732797,16.190208297127207,14.614865544157361,31.09194766170745,22.32581604283253,22.95383125953434
10.862234573670253,10.633972445925876,17.972286214115922,35.47649091806433,15.91502475320486,14.349047272573213,30.690693217782957,22.002805206566237,22.619554827831916
10.664089884762882,10.430514841410844,17.716783609859522,35.02022210074126,15.640217020102137,14.083682329059828,30.287184211153427,21.678981865716473,22.284424874324664
10.466471770932374,10.227729782519605,17.460353554631475,34.56134592409837,15.365828608263035,13.818813281722917,29.88153755126569,21.35442182402811,21.948520856338956
10.269406439669993,10.025641932455754,17.203059305381043,34.099995149236285,15.091902542433534,13.55448218428558,29.473869242720337,21.029200211953363,21.6119215093731
10.072919772906719,9.824275606336517,16.944963580421824,33.63630152182105,14.818481356872534,13.290730571926114,29.064294369854068,20.703391477121567,21.274704837332425
9.877037324421138,9.623654769251559,16.686128552070702,33.17039575472714,14.545607090750545,13.027599457305975,28.65292708171326,20.377069375086215,20.936948103056178
9.681784317369186,9.423803034447017,16.42661583951093,32.70240751111881,14.27332128373546,12.76512932678695,28.239880577418404,20.050306960348795,20.59872781913567
9.487185641935168,9.22474366163396,16.166486501878754,32.2324653879696,14.001664971764638,12.50336013683651,27.82526709191911,19.723176577658794,20.260119739023004
9.293265853103518,9.026499555420433,15.905801031573002,31.760696900019486,13.730678683002566,12.242331310620312,27.40919788213911,19.395749853589237,19.921198848429636
9.100049168550614,8.82909326386623,15.64461934778695,31.287228464169203,13.4604024339832,11.98208173478068,26.991783213510708,19.06809768838699,19.58203935701401
8.907559466656027,8.632546977159508,15.383000790261708,30.81218538431112,13.190875725936166,11.7226497564,26.573132346897925,18.740290248097047,19.242714690357325
8.715820284632516,8.436882526414307,15.121004113260371,30.335691836595863,12.922137541295813,11.464073180147748,26.153353525907573,18.412396956959867,18.903297482226463
8.524854816774038,8.242121382588017,14.85868747976208,29.857870855133754,12.654226340392169,11.206389265609955,25.732553964587286,18.08448649008084,18.563859567123128
8.334685912821021,8.04828465551786,14.596108455875076,29.37884431813022,12.387180058322762,10.949634724799806,25.31083983550962,17.75662676637087,18.224471973118007
8.145336076442113,7.855393093075321,14.33332400546781,28.898732934453964,12.121036102004194,10.693845719848062,24.888316258240952,17.428884941756955,17.885204914968828
7.956827463831607,7.663467080437558,14.070390485017107,28.417656230636698,11.855831347402368,10.439057860871952,24.46508728819411,17.101327402661656,17.546127787521034
7.7691818824216705,7.472526639474685,13.80736363867229,27.935732538303185,11.591602136940208,10.185306204021115,24.04125590586338,16.774019759750175,17.20730915938979
7.582420789708509,7.282591428251878,13.5442985935342,27.453078982030156,11.32838427708162,9.93262524969914,23.616924006440502,16.44702684194381,16.86881676692196
7.396565292191563,7.093680740645175,13.281249855147909,26.969811467632525,11.06621303609045,9.681048940959231,23.19219238981016,16.12041269069843,16.53071750843654
7.211636144424786,6.905813506069855,13.018271303207914,26.48604467087526,10.805123141963122,9.430610662072501,22.767160750923427,15.794240554546572,16.1930774387421
7.027653748179059,6.7190082893202225,12.755416187474578,26.00189202660924,10.545148780533644,9.181343237267292,22.341927670547445,15.468572883901697,15.855961763929642
6.84463815171475,6.533283290519651,12.492737123900454,25.517465718329294,10.286323593749561,8.933278929637979,21.916590606389637,15.143471326123073,15.519434836439197
6.662609049163384,6.34865634517966,12.23028609096518,25.03287666815244,10.028680678117444,8.68644944022162,21.491245884594562,14.818996720839754,15.183560150398558
6.481585780017399,6.165144924366806,11.96811442621751,24.54823452721426,9.77225258331645,8.440885907240808,21.065988691611555,14.495209095531987,14.84840033723229
6.301587328726916,5.982766134976164,11.706272823023024,24.063647666481344,9.517071310978434,8.196618905511007,20.640913066431118,14.172167661368366,14.514017161539298
6.122632324402441,5.801536720110098,11.444811327516055,23.579223167977602,9.263168313633079,7.953678446010677,20.21611189318804,13.849930809296994,14.180471517237034
5.9447390406223946,5.621473059561071,11.183779335754243,23.095066816422026,9.010574493816456,7.712093975612443,19.791676894128987,13.528556106388875,13.847823423970432
5.767925395344331,5.442591170397163,10.923225591074162,22.611283091275652,8.75932020334141,7.471894376973496,19.36769862294239,13.208100292431693,13.516132023783598
5.592208950918693,5.264906707648979,10.663198181646399,22.127975159195156,8.509435242728111,7.233107968583451,18.944266458448283,12.888619276772097,13.18545557805223
5.417606914203954,5.088434965096598,10.403744538228379,21.645244866890497,8.260948860793095,6.9957625049678,18.521468598645708,12.570168135404526,12.855851464674679
5.244136136781931,4.913190876155193,10.144911432113243,21.163192734383944,8.013889754395068,6.759885177045095,18.099392055115274,12.25280110830462,12.527376175519544
5.071813115272078,4.7391890148579545,9.88674497327303,20.681917948667753,7.768286068335733,6.52550261263598,17.678122647774302,11.936571597005154,12.200085314127618
4.900653991743514,4.566443596934887,9.62929060869437,20.201518357757706,7.524165395413855,6.2926408771221345,17.25774499998191,11.62153216241243,11.874033593665917
4.7306745542235635,4.394968480986082,9.37259312090486,19.72209046513956,7.281554776630771,6.061325474253209,16.83834253399145,11.307734522860999,11.549274835131573
4.5618902373015375,4.224777169748007,9.116696626688272,19.243729424605426,7.040480701545498,5.831581347099753,16.419997466747528,10.995229552404526,11.225861965803258
4.394316122826481,4.055882811451378,8.861644575986684,18.76652903547707,6.800969108777597,5.603432879150157,16.002790806024805,10.684067279340594,10.903847017937776
4.227966940697589,3.88829820126912,8.607479750987576,18.29058173821292,6.56304538665591,5.3769038955496,15.586802346905724,10.374296884967205,10.583281127709405
4.062857069745975,3.722035782852957,8.354244265393964,17.81597861039564,6.326734374011245,5.152017664478977,15.172110668594229,10.065966702568652,10.264214534389547
3.8990005387064812,3.557107649957114,8.101979563875574,17.342809363096965,6.092060361111105,4.928796898671725,14.758793131562465,9.759124216628438,9.946696579764184
3.736411027278159,3.3935255481476294,7.8507264216990045,16.87116233761647,5.859047090734487,4.707263757066504,14.346925875027475,9.453816062266847,9.630775707786631
3.575101867272094,3.231300876595747,7.600524944534831,16.401124502590807,5.627717759384819,4.487439846593617,13.936583814754766,9.15008802490078,9.316499464462982
3.4150860438451818,3.0704446899538658,7.35141456843957,15.932781451469982,5.3980950186390055,4.269346224093084,13.527840641185595,8.847985040123353,9.003914497967676
3.256376196818486,2.9109677003124927,7.1034340600104064,15.466217400357142,5.170200976630601,4.053003398362237,13.120768817884764,8.547551193800814,8.693066558986503
3.098984622078775,2.7528802792366442,6.856621516710512,15.001515186208191,4.94405719966507,3.838431332330687,12.71543958030566,8.248829722384237,8.384000501284383
2.942923273061828,2.5961924598801347,6.611014367362815,14.538756265387642,4.719684713965108,3.6256494453605317,12.311922934869253,7.951863013433437,8.076760282495206
2.7882037623160976,2.440913939176182,6.366649372810031,14.078020712576947,4.497104007543945,3.4146766156696113,11.910287658353678,7.6566926063505205,7.771388965130984
2.634837363145289,2.2870540801027417,6.123562626738722,13.619387220031548,4.276335032204571,3.2055311828756508,11.510601297590982,7.3633591933204405,7.467928717807525
2.4828350113284188,2.134621914020993,5.88178955666516,13.162933097182774,4.057397205662786,2.99823095065909,11.112930169467598,7.071902620455924,7.166420816683836
2.332207306915897,1.9836261430853739,5.641364925080742,12.708734270580708,3.840309413791977,2.7927931895424023,10.717339361225045,6.782361889144088,6.8669056471123815
2.1829645161001774,1.8340751427235693,5.402322830754679,12.256865284174076,3.6250900129875068,2.5892346397836805,10.32389273105733,6.494775157592054,6.569422705497351
2.0351165731594993,1.6859769641848514,5.164696710191648,11.807399299923174,3.4117568326485834,2.3875715143822704,9.932652909001451,6.209179742568808,6.274010601358027
1.8886730824732458,1.5393393371551545,4.9285193392420945,11.36040809874179,3.200327177775475,2.1878195021942246,9.543681298117402,5.9256121213405715,5.980707059594341
1.7436433206074253,1.3941696724372754,4.6938228348628535,10.91596208176402,2.9908178316799074,1.9899937711553275,9.157038075953968,5.644107933796904,5.689548922951644
1.6000362384687892,1.2504750646945808,4.460638657025721,10.474130271931866,2.7832450588064965,1.7941089716094452,8.77278219629669,5.364701984764738,5.400572154681755
1.4578604635260761,1.108262295256601,4.2289976107716205,10.03498031589941,2.577624607663036,1.600179239739949,8.390971391194203,5.087428246507516,5.113811841397262
1.31712430209688,0.9675378349848881,3.9989298484079634,9.598578486249354,2.3739717138574656,1.4082182011019508,8.011662173259204,4.812319861406592,4.82930219611607
1.1778357416986218,0.8283078471975107,3.770464871846813,9.164989684017671,2.1723011032393242,1.2182389742530821,7.6349098382402545,4.539409144822043,4.547076561493149
1.0400024534621108,0.6905781906505584,3.543631535081423,8.734277441522083,1.972626995143496,1.030254174480542,7.2607684678605775,4.268727588130006,4.26716741323643
0.9036317946061667,0.5543544225750237,3.31845804679873,8.306503925489997,1.7749631057340456,0.8442759176221403,6.88929093291998,4.000305861933635,3.9896063637037686
0.7687308109717742,0.41964180176743365,3.0949719731253422,7.881729940481576,1.579322651445927,0.6603158239790523,6.520528896656014,3.734173819444775,3.7144241656778845
0.6353062396142434,0.2864452917325981,2.8732002405045782,7.4600149326035226,1.3857183525223489,0.47838502231800173,6.154532818360455,3.470360500033415,3.441650716316161
0.5033645114518334,0.154769563876838,2.6531691387020673,7.04141699350913,1.194162436645566,0.2984941539605777,5.791351957247139,3.208894132941963,3.1713150612721877
0.3729117539693083,0.02461900075006225,2.4349043239374413,6.625992864680175,1.0046666426588715,0.12065337695739964,5.431034376567189,2.9498021411614,2.9034453989858973
0.24395379397488648,-0.10400230066494394,2.218430822139617,6.213797941986136,0.8172422243775467,-0.05512762965516821,5.073626947967647,2.6931111454663186,2.638069085139149
0.11649616040904048,-0.23109052561765214,2.0037730323231697,5.804886280516253,0.6318999544865328,-0.22883966151804605,4.719175356089469,2.4388469686058722,2.3752126372735973
-0.009455912796389817,-0.35664213821098034,1.7909547300832795,5.399310599679873,0.4486501285225741,-0.4004739845345089,4.367724103400877,2.187034639647625,2.1149017395676664
-0.13389748381031455,-0.48065387798017173,1.5799990712067258,4.997122288570526,0.26750256893858504,-0.570022330379595,4.019316515261969,1.9376983984712948,1.8571612477694397
-0.2568238999472817,-0.603122756430995,1.3709285953964023,4.598371411589143,0.08846662924798962,-0.7374768919361493,3.6739947452165356,1.690861700409373,1.6020151942822822
-0.378230794666677,-0.7240460535388963,1.1637652301068124,4.2031067143218355,-0.08844880175322348,-0.9028303186597971,3.3317997805069766,1.4465472210315855,1.349486793399989
-0.4981140845277757,-0.8434213142107307,0.9585302944879962,3.8113756296675954,-0.2632352956889845,-1.066075711875143,2.992771447808214,1.2047768610701655,1.0995984466882445
-0.6164699661021869,-0.9612463447106989,0.7552445034353439,3.4232242842112908,-0.4358848802324227,-1.2272066200054874,2.6569484191764774,0.9655717514828855,0.8523717485091823
-0.7332949128452263,-1.0775192090521113,0.5539279717427363,3.038697504837304,-0.6063900346641999,-1.386217033738351,2.3243682182088183,0.7289522586508059,0.6078274916858212
-0.8485856719277569,-1.1922382253566008,0.3546002183564519,2.6578388255791365,-0.7747436853621533,-1.5431013811290895,1.995067226409206,0.49493798970768177,0.3659856733031539
-0.9623392610300288,-1.3054019621823985,0.15728017072727482,2.2806904947003166,-0.9409392012245034,-1.6978545226448816,1.669080689757042,0.2635477979979699,0.12686550064265673
-1.0745529650990506,-1.417009234823284,-0.038013830741759916,1.9072934820019063,-1.1049703890288791,-1.8504717461513738,1.3464427254739306,0.03479978866037318,-0.10951460275301135
-1.1852243330710228,-1.5270591015798172,-0.23126402815455405,1.537687486351911,-1.2668314887294119,-2.000948761844245,1.0271863289845227,-0.19128867566614205,-0.3431369908883549
-1.2943511745603566,-1.6355508600044555,-0.4224532414906356,1.1719109434318795,-1.4265171686941422,-2.149281697127964,0.711343381067248,-0.4147009690169225,-0.5739847889996693
-1.4019315565168038,-1.7424840431221524,-0.6115648638859206,0.8100010336959785,-1.5840225208849852,-2.2954670914439914,0.3989446551907483,-0.6354211961598648,-0.8020418871191848
-1.507963799852212,-1.8478584156280322,-0.7985828568281161,0.4519936905378166,-1.73934305598249,-2.439501891050691,0.09001982503181358,-0.8534341865403795,-1.0272929335219625
-1.612446476038421,-1.9516739700637231,-0.9834917452693342,0.09792360866028738,-1.8924746984576288,-2.5813834437571823,-0.21540252782937477,-1.068725488116148,-1.249723328058775
-1.715378403677808,-2.053930922973931,-1.1662766126584818,-0.2521757473562972,-2.043413781592836,-2.7211094936133797,-0.5172949060408963,-1.2812813610847387,-1.4693192153782044
-1.8167586450479856,-2.154629711044826,-1.3469230958959886,-0.5982721342925225,-2.192157042454523,-2.858678175558441,-0.81563088844184,-1.491088771507142,-1.686067478041186
-1.9165865026221505,-2.253770987225811,-1.5254173802134365,-0.9403345213393685,-2.338701616819276,-2.994088010029846,-1.11038512186035,-1.698135384830284,-1.8999557295312195
-2.014861515566575,-2.351355616836226,-1.7017461939806433,-1.278333080963626,-2.483045034055946,-3.1273378975353117,-1.4015333127511704,-1.9024095593115726,-2.1109723071634674
-2.111583456216725,-2.447384673658544,-1.8758968034427537,-1.6122391795939652,-2.6251852119658174,-3.258427113189742,-1.689052218676885,-2.1039003393485283,-2.3191062648959573
-2.2067523265334783,-2.541859436019606,-2.04785700738988,-1.9420253681323858,-2.765120451583052,-3.387355301219402,-1.972919639637044,-2.302597448716539,-2.52434736604609
-2.300368354540923,-2.634781382861415,-2.217615131761834,-2.2676653722957805,-2.9028494319375704,-3.5141224694354785,-2.253114409249374,-2.4984912837177826,-2.7266860759156586
-2.3924319907471925,-2.726152189803022,-2.3851600241904802,-2.5891340827923295,-3.038371204782549,-3.638728983679206,-2.529616385787249,-2.691572906244342,-2.9261135543275616
-2.4829439045497974,-2.815973725195017,-2.550481048482235,-2.9064075453374434,-3.1716851892886804,-3.7611755622406933,-2.8024064430775977,-2.881834036758539,-3.122621648077399
-2.5719049806268948,-2.9042480461681275,-2.713568079043225,-3.21946295051396,-3.302791166707341,-3.8814632702535916,-3.0714664612634195,-3.069267047193494,-3.3162028833031245
-2.659316315315941,-2.9909773946774205,-2.8744114952496083,-3.5282786234812944,-3.431689275004794,-3.99959351406773,-3.3367793174350697,-3.2538649537769246,-3.5068504577759154
-2.745179212981153,-3.0761641935435864,-3.0330021757655645,-3.8328340135382275,-3.558380003469553,-4.115568035601815,-3.5983288761344596,-3.4356214097811715,-3.6945582331154094
-2.8294951823712022,-3.1598110424927834,-3.189331492811427,-4.133109683544023,-3.682864187295,-4.2293889066783015,-3.856099979736316,-3.6145306982024366,-3.879320726932448
-2.9122659329685443,-3.2419207141965,-3.343391306384444,-4.429087299202527,-3.805143002139355,-4.341058523342504,-4.110078438710623,-3.7905877243721977,-4.061133104902462
-2.9934933713317844,-3.3224961503128805,-3.495173958434629,-4.720749618213901,-3.925217958665082,-4.450579600168016,-4.360251021770369,-3.963788008503769,-4.239991172772601
-3.073179597432473,-3.40154045753095,-3.644672266998147,-5.008080479298644,-4.043090897059783,-4.557955164550481,-4.606605445908689,-4.134127678176948,-4.41589136830572
-3.1513269009877103,-3.4790569036191656,-3.791879520290689,-5.291064791098498,-4.158763981540644,-4.66318855099175,-4.849130366329494,-4.3016034607636895,-4.588830753164297
-3.2279377577899213,-3.5550489134797143,-3.9367894707632476,-5.569688520958874,-4.272239694844449,-4.766283395376432,-5.087815366275666,-4.466212675797713,-4.7588070047373625
-3.3030148260351533,-3.629520065209934,-4.079396329122725,-5.8439386835973615,-4.383520832705197,-4.867243629242857,-5.322650946758871,-4.6279532272909645,-4.925818407913494
-3.3765609426512486,-3.7024740861722676,-4.219694758319754,-6.113803329662913,-4.4926104983213095,-4.966073474050412,-5.553628516195024,-4.786823595999798,-5.089863846802905
-3.448579119627211,-3.7739148490741012,-4.357679867506136,-6.379271534190237,-4.599512096814435,-5.062777435445219,-5.780740379949431,-4.942822831643783,-5.250942796411666
-3.5190725403450958,-3.8438463680588595,-4.493347205964251,-6.640333384953934,-4.7042293296818025,-5.157360297526105,-6.003979729795609,-5.09595054507996,-5.409055314271032
-3.588044555915725,-3.9122727948096965,-4.626692757010797,-6.8969799707268775,-4.806766189244089,-5.249827117112781,-6.223340633291774,-5.246206900435409,-5.564202032024899
-3.6554986815195103,-3.9791984146671107,-4.757712931877214,-7.149203369447333,-4.907126953090732,-5.340183218018151,-6.438818023078936,-5.393592607200936,-5.71638414697833
-3.721438592753671,-4.044627642761804,-4.886404563569095,-7.396996636299259,-5.005316178524608,-5.428434185326627,-6.650407686104564,-5.538108912288689,-5.86560341361009
-3.785868121987116,-4.108565020164078,-5.012764900706898,-7.640353791710249,-5.101338697007968,-5.514585859680327,-6.858106252775728,-5.6797575920564904,-6.01186213505215
-3.84879125472424,-4.171015210051059,-5.136791601350244,-7.879269809271496,-5.195199608611527,-5.5986443315750005,-7.0619111860456165,-5.818540944301636,-6.155163154539019
-3.910212125978869,-4.231982993893007,-5.2584827268080625,-8.113740603584185,-5.286904276468552,-5.6806159356675145,-7.261820770437299,-5.954461780226911,-6.295509846829838
-3.970135016659585,-4.291473267659982,-5.377836735436849,-8.343763018036658,-5.376458321235793,-5.760507245096702,-7.457834101008571,-6.0875234163815435,-6.4329061096060505
-4.028564349967635,-4.349491038050091,-5.494852476429247,-8.569334812516681,-5.463867615563093,-5.838325065819375,-7.649951072261701,-6.217729666579796,-6.5673563548475125
-4.085504687808628,-4.406041418740532,-5.609529183595186,-8.790454651063117,-5.549138278573468,-5.914076430963244,-7.838172367001877,-6.345084833799875,-6.698865500189863
-4.140960727219194,-4.461129626662653,-5.72186646913774,-9.007122089461243,-5.632276670355437,-5.987768595198495,-8.022499445148123,-6.469593702065818,-6.827438960265942
-4.194937296809773,-4.514760978302189,-5.8318643174258975,-9.219337562785991,-5.713289386469362,-6.059409029129755,-8.2029345325004,-6.5912615283149725,-6.953082638034009
-4.247439353224692,-4.566940886025871,-5.939523078766384,-9.427102372897298,-5.792183252469551,-6.12900541371013,-8.379480609466624,-6.710094034253695,-7.075802916095529
-4.298471977620663,-4.6176748544355375,-6.044843463176653,-9.630418675891711,-5.868965318443821,-6.196565634679007,-8.552141399753268,-6.82609739820383,-7.195606648005235
-4.3480403721648155,-4.666968476750896,-6.147826534161164,-9.829289469514437,-5.943642853572222,-6.2620977770252475,-8.720921359023187,-6.939278246942548,-7.312501149576148
-4.396149856553378,-4.714827431222042,-6.24847370249303,-10.023718580535899,-6.016223340706609,-6.3256101194774335,-8.885825663524304,-7.049643647538068,-7.426494190182227
-4.442805864552083,-4.761257477572829,-6.346786720003068,-10.21371065209688,-6.08671447097269,-6.387111129022744,-9.04686019869271,-7.157201099183766,-7.5375939840612975
-4.488013940559382,-4.8062644534761825,-6.442767673378325,-10.39927113102629,-6.1551241383962125,-6.446609455456047,-9.204031547733768,-7.261958525033162,-7.645809181620851
-4.531779736193512,-4.849854271062406,-6.536418977972054,-10.58040625513556,-6.221460434554854,-6.504113925960781,-9.357346980184701,-7.363924264038239,-7.751148860749319
-4.574109006904461,-4.892032913461526,-6.627743371627155,-10.757123040493601,-6.285731643257422,-6.559633539723141,-9.50681444046218,-7.463107062793502,-7.853622518135364
-4.615007608611841,-4.932806431380695,-6.7167439085150304,-10.929429268686253,-6.34794623525191,-6.613177462581085,-9.65244253639835,-7.559516067388191,-7.9532400605977065
-4.654481494369676,-4.972180939717656,-6.803423952991781,-11.097333474064108,-6.408112862963958,-6.664755021709647,-9.794240527768702,-7.653160815269024,-8.050011796428011
-4.6925367110590965,-5.010162614211266,-6.887787173473691,-11.260844930982556,-6.466240355267221,-6.714375700344,-9.932218314815188,-7.74405122711579,-8.143948426749269
-4.729179396109896,-5.046757688130018,-6.969837536333843,-11.419973641037819,-6.5223377122871184,-6.762049132541719,-10.06638642676791,-7.832197598732145,-8.235061036892132
-4.764415774251909,-5.081972448999532,-7.0495792998217555,-11.574730320302777,-6.576414100239446,-6.807785097985636,-10.196756010368697,-7.917610592953849,-8.323361087791607
-4.798252154297133,-5.115813235369919,-7.127017008007868,-11.725126386566284,-6.628478846305272,-6.851593516828681,-10.32333881839984,-8.000301231576744,-8.408860407406474
-4.830694925953516,-5.148286433623949,-7.202155484754681,-11.871173946579637,-6.678541433543541,-6.893484444582062,-10.446147198221215,-8.080280887306666,-8.491571182163792
-4.8617505566713035,-5.179398474826886,-7.27499982771635,-12.01288578331383,-6.726611495842767,-6.933468067048099,-10.565194080319,-8.157561275733508,-8.571505948430799
-4.891425588522811,-5.20915583161889,-7.345555402368468,-12.15027534323123,-6.772698812913201,-6.971554695299047,-10.680492966869132,-8.232154447331594,-8.648677584016486
-4.919726635116493,-5.237565015150798,-7.413827836069778,-12.283356723575173,-6.816813305320771,-7.007754760703164,-10.792057920318637,-8.304072779488491,-8.723099299705119
-4.9466603785461505,-5.264632572064149,-7.479823012157512,-12.412144659680974,-6.85896502956415,-7.042078809999296,-10.8999035519879,-8.3733289685644,-8.794784630823905
-4.972233566376091,-5.290365081516239,-7.543547064078038,-12.53665451231186,-6.899164173196217,-7.0745375004212,-11.00404501069693,-8.439936021984154,-8.863747428847004
-4.996453008663061,-5.314769152251012,-7.605006369554464,-12.656902255023157,-6.937421049991188,-7.1051415948727925,-11.104497971418601,-8.503907250363932,-8.93000185303804
-5.019325575015721,-5.337851419716542,-7.664207544792806,-12.772904461558202,-6.97374609515863,-7.133901957155527,-11.201278623961866,-8.56525625967463,-8.993562362133241
-5.040858191692432,-5.359618543229878,-7.721157438728328,-12.884678293279203,-7.008149860605595,-7.160829547249016,-11.294403661687806,-8.623996943443947,-9.054443706067314
-5.06105783873811,-5.380077203189963,-7.775863127313605,-12.992241486636363,-7.040643010248054,-7.185935416646047,-11.38389027026146,-8.680143474999074,-9.112660917744051
-5.079931547160871,-5.399234098339348,-7.828331907849846,-13.09561234067847,-7.071236315372761,-7.209230703743062,-11.469756116442205,-8.733710299751937,-9.168229304853773
-5.0974863961491765,-5.417095943075388,-7.878571293362981,-13.194809704608156,-7.099940650050706,-7.230726629287191,-11.552019336915535,-8.784712127528888,-9.221164441739536
-5.11372951033017,-5.433669464811578,-7.926589007025985,-13.289852965384922,-7.126766986603249,-7.250434491880854,-11.630698527168942,-8.833163924946657,-9.271482161314072
-5.128668057069863,-5.4489614013896865,-7.972392976628871,-13.380762035378988,-7.151726391122,-7.26836566354494,-11.70581273041462,-8.879080907836427,-9.319198547029384
-5.142309243815826,-5.462978498543307,-8.01599132909778,-13.467557340079024,-7.174830019043497,-7.284531585341572,-11.777381426561652,-8.922478533717767,-9.364329924900877
-5.15466031548302,-5.475727507413419,-8.057392385064533,-13.550259805856745,-7.196089110779694,-7.298943763057377,-11.845424521240309,-8.963372494324236,-9.406892855587873
-5.165728551883359,-5.4872151821165485,-8.096604653488018,-13.628890847791254,-7.215514987405257,-7.311613762948203,-11.909962334881007,-9.001778708182323,-9.446904126532297
-5.175521265199603,-5.497448277366085,-8.13363682632869,-13.703472357556029,-7.233119046402611,-7.322553207546168,-11.971015591850472,-9.037713313245405,-9.484380744157336
-5.184045797504139,-5.506433546147285,-8.168497773277496,-13.774026691371358,-7.248912757465683,-7.331773771529906,-12.028605409647575,-9.071192659584401,-9.519339926127788
-5.191309518323194,-5.514177737446481,-8.201196536540486,-13.840576658025,-7.2629076583632175,-7.339287177658839,-12.08275328816126,-9.102233302136701,-9.551799093673802
-5.197319822247001,-5.520687594034971,-8.231742325680294,-13.903145506963773,-7.275115350862566,-7.345105192772294,-12.133481098992984,-9.130851993514952,-9.581775863979672
-5.202084126586434,-5.52596985030807,-8.260144512515712,-13.961756916458736,-7.285547496714772,-7.3492396238542215,-12.180811074845957,-9.157065676877254,-9.609288042639315
-5.205609869076563,-5.530031230179759,-8.286412626080502,-14.016434981846551,-7.2942158137017685,-7.351702314164282,-12.224765798983546,-9.180891478860248,-9.634353616180007
-5.207904505627618,-5.532878445033355,-8.310556347642553,-14.067204203849608,-7.301132071746477,-7.352505139436006,-12.265368194759018,-9.202346702576556,-9.656990744655936
-5.20897550812378,-5.534518191728598,-8.3325855057845,-14.114089476977423,-7.306308089086554,-7.351660004142716,-12.302641515218873,-9.221448820678031,-9.677217754313071
-5.20883036227022,-5.534957150665529,-8.352510071546842,-14.157116078011706,-7.3097557285125,-7.3491788378318645,-12.336609332781874,-9.238215468486192,-9.695053130326844
-5.2074765654887845,-5.534201983905523,-8.370340153634572,-14.19630965457751,-7.311486893670845,-7.3450735915284024,-12.367295528995903,-9.252664437191205,-9.710515509614044
-5.204921624862691,-5.532259333349773,-8.386085993688353,-14.231696213802826,-7.311513525433061,-7.339356234207814,-12.394724284374703,-9.26481366712073,-9.72362367372035
-5.201173055130597,-5.529135818975582,-8.39975796162115,-14.263302111068873,-7.3098475983308315,-7.332038749339349,-12.418920068316488,-9.274681241079923,-9.734396541784855
-5.196238376730351,-5.524838037130692,-8.41136655102126,-14.291154038853326,-7.306501117058302,-7.323133131500001,-12.439907629106404,-9.282285377763829,-9.74285316358289
-5.190125113892764,-5.519372558885952,-8.420922374622638,-14.315279015668645,-7.301486113041864,-7.312651383059748,-12.45771198400474,-9.287644425243393,-9.749012712648437
-5.182840792785655,-5.5127459284465195,-8.42843615984336,-14.33570437509761,-7.294814641078043,-7.3006055109385235,-12.472358409422762,-9.290776854526257,-9.752894479477376
-5.174392939708461,-5.504964661621852,-8.433918744393054,-14.352457754928157,-7.286498776039979,-7.287007523435378,-12.483872431187981,-9.29170125319347,-9.754517864812778
-5.16478907933765,-5.496035244354657,-8.437381071950105,-14.365567086389525,-7.27655060965303,-7.27186942713025,-12.49227981490061,-9.29043631911324,-9.753902373013403
-5.154036733023159,-5.485964131308991,-8.438834187909375,-14.375060583491647,-7.264982247339929,-7.255203223858753,-12.497606556382962,-9.287000854232788,-9.751067605506572
-5.14214341713607,-5.4747577445176345,-8.438289235201202,-14.380966732469675,-7.25180580513594,-7.237020907760341,-12.499878872223455,-9.281413758449329,-9.746033254326447
-5.129116641467698,-5.462422472088896,-8.43575745018235,-14.383314281335537,-7.2370334066744135,-7.2173344624001885,-12.49912319041683,-9.273694023561193,-9.738819095738833
-5.114963907680268,-5.448964666972937,-8.431250158599578,-14.382132229538296,-7.220677180243137,-7.1961558579650795,-12.495366141102183,-9.263860727300049,-9.729444983953492
-5.099692707809301,-5.434390645787703,-8.42477877162645,-14.377449817735023,-7.202749255911803,-7.173497048533611,-12.48863454740032,-9.251933027445116,-9.717930844924958
-5.083310522817849,-5.4187066877045265,-8.416354781974,-14.369296517673881,-7.183261762730918,-7.1493699694209445,-12.47895541635194,-9.237930156020294,-9.704296670242783
-5.065824821202669,-5.4019190333934315,-8.405989760075796,-14.357702022191026,-7.162226826002475,-7.123786534598336,-12.466355929958063,-9.221871413575043,-9.688562511112158
-5.047243057652421,-5.38403388402817,-8.393695350347944,-14.342696235322938,-7.139656564622593,-7.096758634187643,-12.450863436324076,-9.203776163549842,-9.67074847242571
-5.027572671757939,-5.365057400350988,-8.379483267524535,-14.324309262535666,-7.115563088496418,-7.068298132030972,-12.432505440908773,-9.183663826726981,-9.65087470692737
-5.0068210867746075,-5.344995701797082,-8.363365293068997,-14.302571401072424,-7.0899584960254485,-7.038416863335599,-12.411309597879626,-9.161553875767465,-9.628961409469058
-4.984995708436884,-5.323854865678713,-8.345353271661788,-14.277513130421001,-7.062854871667486,-7.0071266323942805,-12.38730370157557,-9.137465829834698,-9.605028811360974
-4.962103923824951,-5.3016409264288935,-8.32545910776481,-14.249165102902305,-7.034264283569359,-6.97443921038104,-12.360515678078496,-9.111419249305653,-9.579097174816175
-4.938153100283461,-5.278359874904581,-8.30369476226296,-14.21755813438131,-7.004198781272531,-6.940366333222493,-12.33097357689459,-9.08343373057017,-9.55118678749016
-4.913150584392347,-5.254017657749241,-8.280072249183078,-14.182723195101696,-6.9726703934917,-6.904919699544722,-12.298705562746587,-9.05352890091894,-9.521317957116063
-4.887103700989629,-5.2286201768146645,-8.254603632490674,-14.144691400645343,-6.939691125966451,-6.868110968695705,-12.263739907478021,-9.021724413520795,-9.489511006236084
-4.860019752246143,-5.2021732886418866,-8.227301022964657,-14.103494003017799,-6.905272959386007,-6.829951758843281,-12.226104982070488,-8.988039942489795,-9.455786267029726
-4.831906016792066,-5.174682804001028,-8.198176575150306,-14.059162381860823,-6.869427847387073,-6.7904536451486015,-12.185829248774859,-8.95249517804262,-9.420164076239367
-4.802769748895136,-5.1461544874898655,-8.16724248439071,-14.011728035793032,-6.8321677146247835,-6.749628158014983,-12.142941253357343,-8.91510982174674,-9.382664770193657
-4.772618177690413,-5.116594057190913,-8.134510983936842,-13.961222573879619,-6.793504454916696,-6.707486781412049,-12.097469617461316,-8.875903581859793,-9.343308679929205
-4.741458506461436,-5.086007184386786,-8.099994342136405,-13.907677707232041,-6.75344992945978,-6.664040951275039,-12.049443031085675,-8.834896168760555,-9.302116126410962
-4.709297911972573,-5.054399493333576,-8.06370485970157,-13.85112524073855,-6.712015965120283,-6.619302053979121,-11.998890245180496,-8.79210729047185,-9.259107415851709
-4.676143543852376,-5.021776561091977,-8.025654867055678,-13.791597064926403,-6.669214352796362,-6.573281424888522,-11.94584006436076,-8.747556648275753,-9.214302835131
-4.642002524027723,-4.9881439174158615,-7.985856721758964,-13.729125147956474,-6.62505684585334,-6.525990346980269,-11.890321339738808,-8.701263932421343,-9.167722647313864
-4.60688194620851,-4.953507044697986,-7.944322806013316,-13.663741527750988,-6.579555158631416,-6.477440049542291,-11.832362961876132,-8.653248817925311,-9.119387087269535
-4.570788875422636,-4.917871377972493,-7.901065524246063,-13.59547830425507,-6.532720965025616,-6.42764170694564,-11.771993853855129,-8.60353096046559,-9.069316357390486
-4.533730347601018,-4.881242304973863,-7.85609730077273,-13.524367631832652,-6.484565897137782,-6.376606437490547,-11.709242964471354,-8.552129992368252,-9.017530623411956
-4.495713369212328,-4.843625166251926,-7.809430577538722,-13.450441711797307,-6.4351015440003225,-6.324345302325977,-11.644139261546762,-8.499065518687795,-8.964050010332151
-4.45674491694716,-4.805025255342551,-7.761077811939791,-13.373732785078547,-6.384339450371486,-6.270869304442381,-11.576711725364397,-8.444357113380972,-8.908894598433275
-4.41683193745129,-4.765447818993608,-7.711051474721205,-13.29427312502399,-6.332291115601821,-6.216189387737256,-11.50698934222495,-8.388024315574247,-8.852084419403457
-4.375981347107705,-4.724898057445754,-7.65936404795541,-13.212095030337807,-6.278967992571535,-6.160316436153157,-11.43500109812554,-8.330086625924949,-8.793639452559708
-4.334200031867005,-4.683381124767615,-7.606028023098035,-13.127230818155832,-6.224381486698383,-6.103261272887737,-11.360775972561056,-8.27056350307614,-8.733579621171884
-4.291494847125851,-4.640902129244884,-7.551055899121979,-13.039712817257584,-6.168542955015723,-6.045034659675385,-11.284342932448332,-8.209474360205213,-8.671924788887733
-4.24787261765303,-4.597466133822865,-7.494460180729377,-12.949573361415501,-6.111463705320349,-5.985647296140032,-11.205730926173413,-8.146838561666193,-8.608694756258936
-4.203340137562738,-4.553078156601946,-7.436253376641136,-12.856844782881543,-6.0531549953896855,-5.92510981921862,-11.124968877762095,-8.082675419725671,-8.543909257368135
-4.157904170334662,-4.507743171385498,-7.376447997963746,-12.76155940601137,-5.993628032267896,-5.863432802654761,-11.042085681173885,-8.017004191392283,-8.477587956556809
-4.111571448880418,-4.461466108279653,-7.3150565566330465,-12.663749541026164,-5.932893971620439,-5.800626756562036,-10.957110194719515,-7.949844075339595,-8.409750445253929
-4.064348675655878,-4.414251854344402,-7.25209156393456,-12.563447477912138,-5.870963917156582,-5.736702127056438,-10.870071235602067,-7.881214208922271,-8.340416238905195
-4.016242522818925,-4.366105254295457,-7.187565529100023,-12.460685480457789,-5.807848920119385,-5.67166929595733,-10.780997574581733,-7.811133665285321,-8.269604774002694
-3.967259632432137,-4.317031111256276,-7.1214909579797,-12.355495780428797,-5.743559978842594,-5.605538580556385,-10.689917930764206,-7.739621450566214,-8.197335405214728
-3.917406616709902,-4.267034187559647,-7.05388035179003,-12.247910571880551,-5.6781080383739075,-5.538320233453869,-10.596860966512663,-7.666696501189629,-8.123627402615593
-3.86669005830945,-4.216119205598215,-6.984746205936134,-12.137962005608125,-5.611503990164039,-5.470024442461653,-10.501855282483229,-7.592377681254559,-8.048499949015019
-3.815116510665246,-4.164290848723314,-6.914101008908686,-12.025682183733537,-5.543758671820962,-5.400661330572281,-10.404929412783796,-7.516683780013476,-7.971972137386951
-3.762692498366213,-4.111553762191441,-6.841957241254632,-11.911103154430059,-5.474882866928726,-5.33024095599345,-10.30611182025603,-7.439633509443218,-7.894062968397341
-3.7094245175752167,-4.057912554157712,-6.768327374621201,-11.79425690678332,-5.404887304930208,-5.258773312247167,-10.20543089188033,-7.361245501907251,-7.814791348030561
-3.655319036490228,-4.0033717967156,-6.693223870872629,-11.675175365788867,-5.333782661073125,-5.186268328332914,-10.102914934303515,-7.281538307908908,-7.734176085314048
-3.6003824958465698,-3.947936026982265,-6.616659181278988,-11.553890387485845,-5.261579556418632,-5.112735868954048,-9.998592169488935,-7.200530393935203,-7.652235890140744
-3.5446213094596377,-3.8916097482287473,-6.538645745776501,-11.430433754226371,-5.188288557911789,-5.038185734806706,-9.89249073048866,-7.118240140390761,-7.568989371188852
-3.48804186480748,-3.834397431054293,-6.459195992298696,-11.304837170080184,-5.113920178513189,-4.962627662930423,-9.784638657337421,-7.0346858396214245,-7.484455033938441
-3.4306505236525857,-3.7763035146040718,-6.378322336177709,-11.177132256374037,-5.038484877390994,-4.886071327119682,-9.675063893067863,-6.949885694026996,-7.398651278784356
-3.3724536227022486,-3.7173324078295074,-6.29603717961503,-11.047350547365346,-4.961993060172598,-4.808526338395564,-9.563794279846679,-6.863857814262631,-7.311596399244907
-3.313457474306832,-3.6574884907904566,-6.212352911220975,-10.915523486049464,-4.884455079255157,-4.730002245536688,-9.450857555231144,-6.776620217528313,-7.223308580265747
-3.253668367195265,-3.596776115998438,-6.127281905622123,-10.78168242010001,-4.8058812341741675,-4.650508535668575,-9.33628134854553,-6.688190825945836,-7.13380589661832
-3.1930925672470716,-3.5351996098001,-6.040836523135943,-10.645858597941547,-4.726281772029275,-4.570054634910576,-9.220093177376873,-6.598587465022694,-7.043106311392256
-3.13173631830024,-3.4727632738001115,-5.953029109511817,-10.508083164953934,-4.645666887966476,-4.488649909079464,-9.102320444189463,-6.507827862202244,-6.951227674581056
-3.069605842994208,-3.409471386322636,-5.863871995737632,-10.368387159807586,-4.564046725715837,-4.406303664448783,-8.982990433057473,-6.415929645499491,-6.8581877217603715
-3.006707343647243,-3.3453282039105408,-5.773377497911089,-10.226801510928889,-4.481431378183877,-4.323025148563049,-8.862130306515043,-6.322910342221806,-6.764004072858156
-2.943047003167472,-3.2803379628614775,-5.68155791717486,-10.083357033094918,-4.397830888099689,-4.238823551105834,-8.739767102523128,-6.22878737777387,-6.668694231015949
-2.8786309859968005,-3.2145048807999537,-5.588425539714706,-9.93808442415659,-4.313255248713899,-4.153708004820795,-8.615927731552382,-6.133578074546131,-6.572275581540541
-2.813465439086971,-3.147833158284507,-5.493992636819621,-9.79101426188935,-4.227714404549538,-4.067687586484668,-8.49063897378134,-6.037299650885998,-6.474765390945195
-2.747556492906969,-3.080326980449073,-5.398271465003086,-9.642177000970477,-4.141218252203858,-3.9807713179312216,-8.363927476409053,-5.939969220151,-6.376180806079604
-2.680910262480989,-3.0119905186776332,-5.301274266184465,-9.491602970081992,-4.0537766412001455,-3.8929681671251775,-8.235819751081374,-5.841603789843085,-6.276538853347753
-2.613532848456166,-2.9428279323112103,-5.203013267929545,-9.339322369138147,-3.9653993748885297,-3.8042870492850565,-8.106342171430041,-5.7422202608232675,-6.175856438012815
-2.5454303381992536,-2.8728433703862613,-5.103500683749232,-9.185365266636468,-3.8760962113947985,-3.714736828053918,-7.975520970723639,-5.641835426605751,-6.074150343588149
-2.4766088069214267,-2.8020409734035234,-5.0027487134553725,-9.029761597131234,-3.7858768646161924,-3.6243263167169344,-7.843382239629528,-5.540465972730639,-5.971437231313505
-2.4070743188303734,-2.730424875126336,-4.900769543572651,-8.872541158828257,-3.6947510052631554,-3.5330642794647247,-7.709951924085777,-5.438128476214365,-5.86773363971548
-2.3368329283088274,-2.657999204407459,-4.797575347805503,-8.713733611299821,-3.6027282619459853,-3.440959432701363,-7.575255823282105,-5.334839405076888,-5.763055984251255
-2.2658906811186887,-2.5847680870433973,-4.693178287558955,-8.553368473318567,-3.5098182223053294,-3.3480204463959553,-7.4393195877488285,-5.230615117944756,-5.657420557034623
-2.194253615629864,-2.510735647655227,-4.587590512512287,-8.391475120809105,-3.4160304341854397,-3.2542559454766735,-7.302168717552756,-5.1254718637290315,-5.550843526643274
-2.121927764072956,-2.4359060115949163,-4.480824161244393,-8.228082784916058,-3.3213744068491025,-3.159674511266122,-7.16382856059894,-5.019425781377124,-5.44334093800632
-2.0489191538149054,-2.3602833068761035,-4.372891361909698,-8.063220550187289,-3.2258596122331293,-3.064284682956885,-7.024324311037199,-4.91249289969752,-5.334928712370977
-1.9752338086567085,-2.2838716661283085,-4.263804232963464,-7.89691735287091,-3.129495486243298,-2.968094959126105,-6.883681007772255,-4.804689137256386,-5.22562264734734
-1.9008777501522915,-2.2066752285735256,-4.1535748839353195,-7.729201979324769,-3.032291430087609,-2.871113799287927,-6.741923533076357,-4.696030302345001,-5.11543841703013
-1.8258569989476445,-2.128698142024149,-4.042215416249817,-7.560103064536998,-2.9342568116467085,-2.773349625482627,-6.599076611303173,-4.586532093016973,-5.004391572196308
-1.7501775761392901,-2.049944564901163,-3.9297379240928016,-7.389649090756198,-2.8354009668803264,-2.6748108239012347,-6.455164807701742,-4.476210097194143,-4.8924975405773985
-1.6738455046511564,-1.970418668271531,-3.816154495322366,-7.21786838622981,-2.735733201268556,-2.5755057465444597,-6.310212527329257,-4.365079792840097,-4.779771627205355
-1.5968668106289292,-1.8901246379036971,-3.7014772124231525,-7.044789124049206,-2.635262791286799,-2.475442712914695,-6.164244014061396,-4.253156548200156,-4.6662290148308045
-1.5192475248509358,-1.8090666763401149,-3.5857181535027434,-6.870439321099969,-2.533998985913188,-2.3746300117398813,-6.017283349698928,-4.140455622106725,-4.551884764412448
-1.4409936841546127,-1.727249004985705,-3.468889393328865,-6.694846837115838,-2.4319510081672773,-2.2730759027280056,-5.86935445316928,-4.026992164348846,-4.4367538156764095
-1.3621113328776093,-1.6446758662111356,-3.3510030044061208,-6.518039373834757,-2.3291280566787975,-2.170788618350984,-5.720481079821711,-3.912781216104801,-4.32085098774428
-1.2826065243125613,-1.5613515254698134,-3.232071058090952,-6.3400444742554365,-2.225539307285246,-2.067776365656687,-5.570686820814761,-3.797837710436573,-4.204190979828622
-1.2024853221745664,-1.4772802734274675,-3.1121056257435176,-6.160889521992806,-2.1211939146570877,-1.9640473281078374,-5.419995102594566,-3.6821764728449864,-4.086788371994648
-1.1217538020803957,-1.3924664281032015,-2.991118779915162,-5.980601740730719,-2.0161010139493247,-1.8596096674465217,-5.268429186462641,-3.565812221884302,-3.968657625986785
-1.0404180530384588,-1.3069143370208784,-2.8691225955701345,-5.799208193770254,-1.910269722478178,-1.7544715255830328,-5.116012168231723,-3.448759569835042,-3.849813086118833
-0.9584841789485401,-1.2206283793697028,-2.7461291513402024,-5.616735783671917,-1.8037091414216382,-1.6486410265077636,-4.962766977968208,-3.3310330234338164,-3.7302689802263713
-0.875958300110322,-1.1336129681728562,-2.6221505308108073,-5.433211251990027,-1.6964283575426062,-1.542126278224859,-4.808716379819725,-3.2126469846588788,-3.6100394206801028
-0.7928465547397001,-1.0458725524630343,-2.497198823837386,-5.248661179097567,-1.5884364449333606,-1.434935374706327,-4.6538829719263575,-3.0936157515701614,-3.4891384054587693
-0.7091551004918961,-0.9574116194637348,-2.371286127890468,-5.06311198409973,-1.479742466780066,-1.3270763978653004,-4.498289186414007,-2.9739535192024973,-3.367579819280275
-0.6248901159903701,-0.8682346967751332,-2.244424549428156,-4.876589924834394,-1.3703554771460413,-1.2185574195471476,-4.341957289468381,-2.85367438051074,-3.2453774347896447
-0.5400578023605274,-0.7783463545633869,-2.1166262052945837,-4.68912109795772,-1.2602845227724893,-1.1093865035371056,-4.184909381488057,-2.732792327365474,-3.1225449138024253
-0.4546643847672125,-0.687751207752196,-1.9879032241429404,-4.500731439113063,-1.149538644895393,-0.9995717075831156,-4.027167397315071,-2.6113212515979973,-2.9990958086021102
-0.368716113954983,-0.5964539182154532,-1.8582677478816298,-4.311446723181355,-1.0381268810772708,-0.8891210854325348,-3.868753106541437,-2.4892749460932495,-2.8750435632901836
-0.282219267790149,-0.5044591969698053,-1.7277319331421455,-4.12129256461111,-0.9260582670524808,-0.7780426888813889,-3.7096881138900306,-2.3666671059293423,-2.7504015151873444
-0.1951801528035637,-0.4117718063659487,-1.5963079527672106,-3.9302944178261807,-0.8133418385847595,-0.6663445698348335,-3.5499938596682115,-2.2435113295623434,-2.625182896284473
-0.10760510573314756,-0.3183965622774767,-1.4640079973177405,-3.7384775777093715,-0.6999866333356731,-0.5540347823774763,-3.3896916202925653,-2.119821120054955,-2.499400834741874
-0.019500495065126237,-0.22433833628609567,-1.3308442765971726,-3.5458671801600103,-0.5860016927426575,-0.4411213848522217,-3.2288025088831307,-1.9956098863477156,-2.3730683564353483
0.06912727742703867,-0.1296020578620214,-1.1968290211917034,-3.35248820272356,-0.47139606390531597,-0.3276124419462864,-3.0673474759254544,-1.8708909445713484,-2.2461983865476016
0.158271775147049,-0.03419271653836849,-1.0619744840249643,-3.1583654652913236,-0.3561788014786455,-0.21351602678303608,-2.9053473099988136,-1.7456775193988714,-2.1188037512035067
0.2479265251445234,0.06188463592165823,-0.9262929419256665,-2.9635236308683077,-0.24035896957185235,-0.09884022301828904,-2.7428226385689234,-1.6199827454360716,-1.990897179147725
0.33808501658912954,0.15862488336596162,-0.7897966972067374,-2.7679872064072795,-0.12394564365142247,0.01640687306026791,-2.579793928843444,-1.4938196686489413,-1.8624913034631794
0.4287406992511195,0.2560228431043318,-0.652498079254465,-2.5717805437070336,-0.00694791244710273,0.13221715043190926,-2.4162814886885777,-1.3672012478266682,-1.7335986633288647
0.5198869819892937,0.35407326377000026,-0.5144094461261659,-2.3749278403728917,0.11062512014054768,0.24858248124130405,-2.25230546760505,-1.2401403560787645,-1.6042317058154703
0.6115172312474172,0.4527708231931605,-0.37554318615488613,-2.1774531408374296,0.2287643331323798,0.3654947186979114,-2.087885857761747,-1.1126497823649133,-1.4744027877172885
0.7036247695601118,0.5521101262876479,-0.23591171955964244,-1.9793803374394277,0.34746058656399537,0.4829456949776974,-1.9230424950852767,-0.9847422330561005,-1.344124177418869
0.7962028740692462,0.6520857029519701,-0.09552750005970922,-1.7807331715590284,0.46670471958154985,0.6009272191285316,-1.7577950604037127,-0.8564303335256003,-1.2134080567948766
0.8892447750518447,0.752692005985878,0.045596983508548315,-1.5815352348070706,0.5864875485413619,0.719431074980621,-1.5921630806427707,-0.7277266297683742,-1.0822665231415989
0.9827436544605309,0.8539234090236669,0.18744920557379402,-1.3818099702665672,0.7067998651146731,0.8384490190633376,-1.4261659300726544,-0.5986435900474424,-0.9507115911385537
1.0766926444775238,0.955774204485394,0.33001660221229556,-1.1815806737842842,0.8276324343988997,0.9579727785297947,-1.25982283160381,-0.46919360656577574,-0.8187551948386302
1.1710848260831965,1.058238601547199,0.473286569532457,-0.9808704953103707,0.9489759930367171,1.077994049090524,-1.0931528581298124,-0.33938899716225823,-0.6864091896852009
1.265913227640212,1.161310724131912,0.6172464620628131,-0.7797024402839826,1.070821247344317,1.1985044929576054,-0.9261749339156059,-0.2092420070302624,-0.5536853545546325
1.3611708234942381,1.26498460892113,0.7618835911449886,-0.5780993710628405,1.1931588714501735,1.3194957368005962,-0.7589078360293143,-0.07876481045738051,-0.42059539382262134
1.4568505325922474,1.3692542033899384,0.9071852233331263,-0.37608400839465617,1.3159795054456485,1.4409593697156016,-0.591370195815831,0.05203048741515042,-0.28715093945277653
1.5529452171194034,1.4741133638654536,1.053138578801285,-0.17367893292835757,1.4392737535487705,1.562886941208829,-0.42358050041039436,0.18313184881479255,-0.15336355310586963
1.6494476811555232,1.5795558536103607,1.1997308297603102,0.029093413236960602,1.5630321822825126,1.6852699591959581,-0.25555709429035145,0.3145273015432845,-0.019244728268167116
1.7463506693521078,1.685575340932612,1.346949098885676,0.23221072496743478,1.6872453186688907,1.808099888018662,-0.08731818086330698,0.446204937166917,0.11519410760273902
1.8436468656309273,1.7921653973224536,1.494780457757793,0.43565083247625636,1.8119036484401996,1.931368146479604,0.08111817591014218,0.5781529091929722,0.2499415909161892
1.9413288919051426,1.899319495617935,1.6432119253162742,0.6393916996739979,1.936997614268698,2.055066105897227,0.24973404986089393,0.7103594312337924,0.3849864197723908
2.039389306823936,2.0070310082000566,1.7922304663296533,0.8434114224895191,2.062517614016052,2.1791850881816535,0.41851165092485465,0.8428127751599412,0.5203173517736172
2.1378206045416195,2.115293205218711,1.9418229898820334,1.0476882271635286,2.1884539990038356,2.3037163639329963,0.5874333234272867,0.9755012692439227,0.6559232018242604
2.2366152135121835,2.2240992528505505,2.091976347878153,1.2522004685168782,2.314797072306384,2.4286511505633883,0.7564815443397964,1.108413296295918,0.7917928399213259
2.3357654953102456,2.3334422115899303,2.2426773335683428,1.456926628195659,2.4415370870672897,2.5539806104440204,0.9256389215117693,1.2415372917930025,0.9279151889369562
2.4352637434793474,2.4433150345740517,2.393912680094843,1.6618453128951745,2.568664244840817,2.6796958490784712,1.09488819187806,1.3748617420033002,1.0642792223945754
2.535102182408545,2.5537105659434385,2.5456690590609443,1.8669352525648517,2.696168693959514,2.8057879133036088,1.2642122196447432,1.5083751821065319,1.200873962240238
2.635272966238229,2.6646215392388615,2.6979330791244167,2.072175298596164,2.8240405279292897,2.932247789519335,1.433593994454729,1.6420661943124086,1.3376884766107735
2.7357681777961127,2.776040575835834,2.8506912846166728,2.277544421995617,2.952269783853219,3.0590664019484337,1.6030166295350459,1.7759234059783249,1.4747118776003036
2.836579827564306,2.8879601834177824,3.003930154189114,2.483021711544856,3.0808464408853236,3.1862346109277753,1.7724633598275925,1.9099354877277956,1.6119333190267209
2.937699852678393,3.000372754488985,3.1576360994880917,2.6885863719499437,3.2097604187155637,3.3137432112321217,1.941917540105153,2.0440911515710756,1.7493419941996955
3.039120115959425,3.113270564928381,3.311795463859915,2.894217721981848,3.339001576087289,3.441582930431765,2.1113626430744667,2.1783791490293973,1.8869271336917923
3.1408324049797205,3.2266457725853126,3.4663945210873157,3.0998951926101768,3.4685597093483587,3.56974442728522,2.2807822574681373,2.3127882692642556,2.0246780031142557
3.242828431163349,3.340490415918297,3.621419474158776,3.305598325132187,3.598424551037144,3.6982182901681835,2.450160086127162,2.4473073372131644,2.162583900899025
3.345099828922196,3.4547964126778594,3.77685645407211,3.511306769299073,3.7285857685046153,3.8269950355399573,2.6194799440758505,2.5819252117333034,2.3006341560885355
3.4476381548284607,3.569555558634488,3.9326915186736886,3.717000281441553,3.8590329625736857,3.956065106448531,2.7887257565908996,2.7166307837544648,2.4388181261348536
3.5504348868244393,3.6847595263527544,4.088910651534668,3.9226587225967506,3.9897556662369973,4.085418871075492,2.957881557266391,2.8514129744426957,2.5771251947096783
3.6534814234704482,3.800399864012615,4.245499760865583,4.1282620566383486,4.120743343394314,4.215046621321921,3.1269314860764466,2.9862607333760414,2.715544769526748
3.756769083231708,3.916467994278911,4.4024446784706415,4.3337903484119895,4.251985387630651,4.344938571436429,3.2958597874372915,3.121163036733768,2.8540662801781718
3.860289103805008,4.032955213220073,4.559731158743055,4.539223761877896,4.383471121036294,4.475084856686469,3.464650808270454,3.2561088855004447,2.992679175986199
3.964032641485964,4.14985268927701,4.717344877702721,4.744542558262637,4.515189793069808,4.6054755320740455,3.633288996068827,3.3910873036862537,3.1313729238719343
4.06799077057766,4.267151462283159,4.875271432077541,4.949727094221996,4.647130579465148,4.736100571096917,3.8017588969672924,3.5260873365648897,3.270137006242489
4.172154482841455,4.384842442536658,5.033496338429685,5.154757820016837,4.779282581183954,4.866949864556393,3.9700451538196146,3.661098048930399,3.4089609188980545
4.276514686990715,4.5029164099255805,5.192005032328036,5.359615277703897,4.9116348234141185,4.998013219412803,4.138132504283286,3.796108523374291,3.5478341689603696
4.381062208228231,4.62136401310717,5.350782867568107,5.56428009934337,5.044176254615656,5.129280357689683,4.306005778914005,3.931107858584264,3.686746272824042
4.485787787828059,4.7401757687419845,5.5098151154406265,5.768733005225154,5.1768957456149245,5.260740915427724,4.4736498992714395,4.066085167665851,3.825686754132175
4.590682082762492,4.859342060783846,5.669086964050037,5.97295480211563,5.309782088748223,5.392384441689518,4.6410498760379255,4.201029576488288,3.9646451417777344
4.695735665374892,4.978853139826484,5.828583517684086,6.176926381526789,5.442823997055762,5.524200397616094,4.808190807151737,4.335930222055921,4.103610967932084
4.800939023099059,5.098699122507728,5.988289796235704,6.380628718009515,5.576010103526988,5.656178155536244,4.975057875956545,4.470776250906406,4.242573766102097
4.906282558225818,5.2188699909721095,6.148190734678326,6.584042867472839,5.709328960398234,5.788306998129593,5.141636349368664,4.605556817536992,4.381523069217236
5.011756587717477,5.339355592392683,6.308271182595797,6.787149965530919,5.842769038503638,5.920576117644384,5.307911576063674,4.740261082860126,4.520448407747988
5.117351343070816,5.4601456385529055,6.468515903767993,6.989931225879513,5.97631872668026,6.0529746151708945,5.473868984683987,4.8748782126896275,4.659339307857019
5.22305697022922,5.581229705489337,6.628909575813245,7.192367938703646,6.109966331228297,6.185491499971401,5.639494082068902,5.009397376258659,4.798185289584397
5.328863529544557,5.7025972331959425,6.789436789888653,7.394441469118205,6.243700075427266,6.318115688867559,5.8047724515086925,5.143807744770701,4.936975865068219
5.434760995789408,5.8242375253907674,6.950082050449351,7.596133255643119,6.377508099109044,6.450836005686091,5.9696897510242275,5.278098489984737,5.075700536801968
5.540739258220212,5.946139749345701,7.110829775067739,7.7974248087147835,6.511378458288591,6.583641180763612,6.134231711673617,5.412258782835807,5.2143487959298875
5.646788120691876,6.068292935780035,7.271664294313721,7.998297709235363,6.645299124853167,6.716519850511408,6.298384135887364,5.546277792092099,5.352910120581667
5.752897301824412,6.190685978818528,7.432569851696902,8.198733607161554,6.779257986310861,6.849460557040979,6.462132895833469,5.680144683049731,5.491373974247709
5.859056435222073,6.313307636014631,7.593530603671724,8.398714220134408,6.913242845599197,6.98245174785111,6.625463931813913,5.8138486162663385,5.629729804196218
5.9652550697455355,6.436146528439526,7.754530619706479,8.598221332151729,7.047241420954563,7.115481775577232,6.788363250693922,5.947378746334578,5.767967039933347
6.071482669837565,6.559191140837601,7.915553882417112,8.797236792284574,7.1812413458431905,7.248538897803793,6.950816924365395,6.080724220696621,5.9060750917075975
6.177728615902643,6.682429821848975,8.076584287766691,8.995742513439351,7.315230168954404,7.381611276940349,7.112811088245866,6.213874178500734,6.044043349059688
6.28398220474099,6.805850784299632,8.237605645331401,9.193720471166944,7.449195354256799,7.514686980162051,7.274331939814317,6.346817749500964,6.181861179419041
6.3902326500373965,6.929442105559748,8.398601678633888,9.391152702520287,7.583124281118009,7.64775397941517,7.43536573718516,6.479544053000952,6.319517926748058
6.496469082905262,7.053191727970708,8.559556025544758,9.588021304961796,7.7170042444886935,7.780800151488296,7.595898797721685,6.612042196842901,6.457002910235293
6.602680552486204,7.177087459341338,8.720452238753012,9.784308435322012,7.8508224551513495,7.913813278149814,7.755917496690216,6.744301276442656,6.594305423038639
6.7088560266055906,7.301116973513855,8.881273786306144,9.979996308810785,7.984566040034521,8.046781046352233,7.9154082659562155,6.8763103738718785,6.731414731079609
6.814984392484327,7.425267810999957,9.04200405222062,10.175067198082253,8.118222042592947,8.17969104850391,8.074357592723537,7.008058556988224,6.868320071889773
6.921054457507192,7.549527379687504,9.202626337163416,10.36950343235491,8.251777423254183,8.31253078280868,8.232752018318017,7.139534878614455,7.00501065351039
7.0270549500480115,7.673882955618197,9.363123859205267,10.563287396587956,8.385219059932176,8.445287653673908,8.390578137016558,7.2707283757673595,7.141475653446254
7.132974520351908,7.79832168383663,9.52347975464624,10.756401530715154,8.518533748608283,8.577948972187402,8.547822594922796,7.4016280689373435,7.277704217674728
7.238801741474877,7.9228305793110785,9.683677078914233,10.948828328937287,8.651708203980123,8.710501956663641,8.70447208889049,7.5322229614195315,7.413685459710947
7.344525110280862,8.047396527926349,9.843698807536933,11.140550339074363,8.78472906017871,8.842933733259702,8.860513365495658,7.662502038697187,7.549408459730107
7.450133048496539,8.172006287548985,10.003527837187779,11.331550161978635,8.917582871554236,8.975231336661285,9.015933220058498,7.792454267878221,7.684862263747773
7.555613903823946,8.296646489165118,10.163146986806371,11.521810451009463,9.050256113530812,9.10738171083918,9.170718495716125,7.922068597185565,7.82003588285907
7.660955951111075,8.42130363809119,10.322538998793819,11.711313911571024,9.182735183530534,9.239371709876483,9.324856082547068,8.051333955502121,7.954918292537635
7.766147393580552,8.545964115257798,10.481686540283409,11.9000433007138,9.315006401967123,9.371188098866819,9.47833291674848,8.180239251970992,8.089498431995143
7.871176364116439,8.670614178566817,10.640572204486995,12.087981426800802,9.447056013309377,9.502817554883858,9.631135979866949,8.308773375651647,8.223765203602218
7.976030926609248,8.795239964321985,10.799178512117447,12.275111149239363,9.57887018721469,9.634246668022353,9.783252298083802,8.436925195232694,8.357707472371501
8.080699077359137,8.91982748873308,10.957487912887453,12.461415378279346,9.710435019732783,9.765461942510854,9.934668941555728,8.564683558801848,8.491314065503605
8.185168746537318,9.044362649493802,11.115482787084948,12.646877074878569,9.841736534579809,9.896449797896272,10.085373023811531,8.692037293673685,8.624573771996696
8.28942779970562,9.168831227433415,11.273145447225396,12.831479250636177,9.972760684482955,10.02719657030039,10.235351701205795,8.818975206275748,8.757475342320369
8.393464039394162,9.29321888824222,11.430458139781097,13.015204967794679,10.103493352595601,10.157688513748441,10.384592172430175,8.94548608209351,8.890007488154476
8.497265206737016,9.417511184270861,11.58740304698769,13.198037339311309,10.233920353983093,10.287911801569798,10.533081678083027,9.071558685674702,9.022158882193525
8.60081898316575,9.541693556403432,11.743962288727943,13.379959528999333,10.364027437179123,10.417852527870767,10.680807500298046,9.197181760693473,9.153918158017246
8.704112992160706,9.665751336004377,11.90011792449289,13.560954751739851,10.493800285812707,10.547496709079509,10.827756962432526,9.322344030074808,9.285273910027875
8.807134801059831,9.789669746939056,12.055851955420358,13.74100627376464,10.623224520305685,10.676830285562994,10.973917428815849,9.447034196179644,9.416214693454702
8.909871922924848,9.913433907667908,12.211146326410839,13.920097413010508,10.752285699640636,10.805839123315947,11.119276304558761,9.571240941051022,9.546729024426346
9.012311818464525,10.037028833414016,12.365982928320662,14.098211539545606,10.880969323199057,10.934509015721616,11.263821035423927,9.694952926721632,9.676805380111249
9.114441898014755,10.160439438403937,12.520343600232351,14.275332076068072,11.00926083266966,11.062825685384247,11.40753910775828,9.81815879558308,9.806432198926773
9.2162495235752,10.283650538181556,12.674210131802015,14.451442498477382,11.137145614026531,11.19077478603303,11.550418048487602,9.940847170817147,9.935597880817339
9.317722010902106,10.406646851994727,12.827564265683613,14.62652633651864,11.264608999576936,11.318341904497288,11.692445425173702,10.06300665688928,10.064290787601918
9.418846631656953,10.529413005254415,12.980387700029823,14.800567174500092,11.391636270078417,11.445512562752674,11.833608846134599,10.184625840104575,10.192499243391223
9.519610615610542,10.651933532066023,13.132662091069248,14.973548652084041,11.518212656924904,11.572272220038007,11.973895960627997,10.30569328922642,10.32021153507487
9.620001152902095,10.774192877832537,13.284369055759628,15.14545446515131,11.644323344401426,11.698606275042433,12.113294459098364,10.42619755615796,10.44741591287876
9.72000539635291,10.896175401929108,13.435490174516678,15.316268366739363,11.769953472006996,11.824500068162495,12.251792073487822,10.546127176686504,10.5741005909929
9.819610463834076,11.017865380448635,13.586006994018168,15.485974168054087,11.895088136845239,11.949938883828693,12.389376577611067,10.665470671290967,10.700253748269823
9.918803440687713,11.139247009017884,13.735901030082774,15.654555739555256,12.019712396082237,12.07490795290106,12.52603578759448,10.784216546012424,10.825863528993759
10.017571382201204,11.26030440568362,13.885153770623155,15.821997012115586,12.143811269471035,12.199392455133244,12.66175756237954,10.902353293387788,10.95091804372064
10.115901316133831,11.381021613868237,14.033746678672744,15.988281978253276,12.267369741942217,12.32337752170452,12.796529804290582,11.019869393446609,11.075405370188992
10.213780245295165,11.501382605394282,14.181661195485614,16.153394693437875,12.390372766259963,12.44684823781915,12.930340459666956,11.136753314770951,11.199313554301764
10.311195150174585,11.621371283577272,14.328878743708815,16.317319277469213,12.512805265742891,12.569789645372422,13.063177519559561,11.252993515618286,11.322630611179044
10.408132991621217,11.740971486386126,14.475380730626435,16.480039915929105,12.634652137048912,12.692186745682694,13.19502902049165,11.368578445107259,11.44534452628163
10.504580713573587,11.860166989670514,14.621148551474636,16.641540861705508,12.755898253023409,12.814024502288676,13.325883045283826,11.483496544466208,11.567443256605374
10.60052524583821,11.978941510454373,14.766163592826901,16.80180643658872,12.876528465609885,12.935287843811226,13.455727723943072,11.597736248344233,11.688914731946104
10.695953506916346,12.097278710294804,14.91040723604858,16.96082103293914,12.996527608822262,13.05596166687875,13.584551234615555,11.711285986184622,11.809746856235025
10.790852406878098,12.215162198705523,15.053860860819928,17.11856911542607,13.115880501777934,13.176030839115382,13.712341804603001,11.824134183660336,11.929927508944319
10.885208850282963,12.332575536643992,15.19650584872658,17.27503522283699,13.23457195179061,13.295480202191033,13.839087711442321,11.936269264171298,12.04944454656274
10.979009739145985,12.449502240061355,15.338323586916538,17.43020396995666,13.35258675752198,13.4142945749323,13.964777284048102,12.047679650403117,12.168285804140849
11.07224197594854,12.56592578351416,15.479295471822546,17.584060049515283,13.469909712191175,13.53245875649328,14.08939890391758,12.158353765946902,12.286439096905587
11.164892466692795,12.681829603836896,15.6194029129488,17.736588234205016,13.586525606840935,13.649957529585182,14.21294100639762,12.268280036979736,12.403892221943792
11.256948123998853,12.79719710387429,15.758627336720775,17.88777337876398,13.702419233659409,13.766775663763655,14.335392082013204,12.377446894005358,12.520632959954257
11.348395870243506,12.91201165627227,15.896950190397021,18.03760042212686,13.817575389356387,13.8828979187727,14.456740677856915,12.485842773654563,12.636649077067819
11.439222640739535,13.026256607326465,16.034352946041604,18.186054389641157,13.931978878592753,13.998309047943906,14.57697539903872,12.59345612054475,12.751928326735
11.52941538695447,13.139915280887042,16.170817104555855,18.33312039534802,14.04561451746193,14.112993801649843,14.696084910195461,12.700275389198092,12.866458451680622
11.61896107976761,13.25297098231863,16.30632419976811,18.478783644326644,14.158467137021988,14.22693693081029,14.814057937059365,12.80628904601767,12.980227185924834
11.707846712764118,13.365407002514067,16.44085580257993,18.623029435101024,14.270521586877111,14.34012319044995,14.93088326808475,12.911485571320906,13.093222256869874
11.79605930556497,13.477206621960665,16.57439352516734,18.765843162107853,14.381762738806955,14.452537343306302,15.04654975613218,13.01585346142958,13.205431387451863
11.883585907191462,13.588353114857599,16.706919025235546,18.907210318224333,14.492175490442538,14.564164163486154,15.161046320209163,13.119381230815687,13.316842298356937
11.970413599462967,13.698829753282993,16.838414010325454,19.047116497354516,14.601744768987112,14.674988440169415,15.274361947266526,13.222057414302325,13.427442710300902
12.056529500426599,13.80861981140925,16.96886024217042,19.18554739707281,14.710455534980518,14.784994981358572,15.386485694049494,13.323870569318748,13.537220346371614
12.141920767817354,13.917706569765084,17.098239541101407,19.322488821323137,14.818292786105427,14.894168617672333,15.497406689002453,13.424809278208702,13.646162934433184
12.226574602547288,14.026073319542748,17.226533790498817,19.457926683172236,14.925241561033845,15.002494206181797,15.607114134226334,13.524862150591092,13.754258209591075
12.31047825222229,14.133703366948806,17.353724941289162,19.591847007615534,15.031286943312194,15.109956634287501,15.715597307487513,13.62401782577198,13.86149391671714
12.39361901468485,14.240580037596786,17.47979501648463,19.724235934433935,15.136414065283258,15.216540823635654,15.822845564277053,13.722264975206844,13.967857813033573
12.475984241581282,14.346686680940063,17.60472611576354,19.855079721099766,15.240608112043203,15.322231734071803,15.928848339919101,13.81959230501205,14.073337670754707
12.557561341951775,14.452006674743197,17.728500420089723,19.98436474573015,15.343854325431842,15.427014367630143,16.033595151727155,13.915988558524408,14.177921279785547
12.638337785841621,14.556523429589916,17.8511001963687,20.112077510085914,15.44613800805426,15.530873772556628,16.137075601206867,14.011442518907577,14.281596450475815
12.718301107931884,14.66022039342594,17.972507802138505,20.238204642614175,15.547444527331914,15.633795047363998,16.239279376304054,14.10594301180412,14.384351016428324
12.797438911187777,14.763081056134745,18.092705690292895,20.362732901532564,15.647759319581189,15.735763344916798,16.34019625369648,14.199478908031915,14.48617283736039
12.875738870522948,14.865088954144332,18.21167641383472,20.48564917795315,15.747067894117405,15.836763876544426,16.439816101127903,14.29203912632362,14.58704980201696
12.953188736477857,14.96622767506306,18.329402630657043,20.606940499043887,15.845355837382215,15.936781916180163,16.53812887978294,14.383612636107799,14.686969831134089
13.029776338910331,15.06648086234247,18.445867108349628,20.726594031225456,15.94260881709222,16.035802804524124,16.63512464670109,14.474188460330302,14.785920880451306
13.105489590696415,15.165832219965063,18.56105272902828,20.844597083401293,16.038812586406667,16.13381195322804,16.73079355722838,14.563755678314463,14.883890943771375
13.180316491439553,15.264265517154925,18.674942494184478,20.96093711021852,16.133952988111954,16.23079484909968,16.825125867504866,14.65230342865859,14.980868056065955
13.254245131186075,15.361764593109024,18.78751952955271,21.075601715357415,16.228015958820695,16.326737058324746,16.918111936986342,14.739820912169192,15.076840296625544
13.327263694144971,15.458313361747011,18.898767089992806,21.18857865484705,16.320987533182993,16.42162423070398,17.00974223099843,14.826297394828378,15.171795792252054
13.399360462409879,15.553895816477233,19.008668564384493,21.29985584040462,16.412853848107517,16.515442103903183,17.100007323321254,14.911722210793801,15.265722720492354
13.470523819681109,15.648496034976692,19.11720748053138,21.409421342795913,16.50360114698997,16.608176507713853,17.188897898802807,14.996084765429432,15.358609312911021
13.540742254985647,15.7420981839826,19.22436751007147,21.517263395214357,16.59321578394641,16.699813368321998,17.27640475599909,15.079374538365503,15.450443858400481
13.610004366392852,15.83468652409319,19.33013247339123,21.62337039667601,16.681684228048915,16.79033871258276,17.362518809839024,15.161581086585846,15.541214706526713
13.67829886472366,15.926245414575282,19.43448634454022,21.727730915427774,16.768993067560924,16.879738672298316,17.44723109431215,15.242694047540832,15.630910270908588
13.745614577251002,16.01675931817622,19.53741325614313,21.830333692366036,16.855129014169655,16.967999488496606,17.530532765176982,15.322703142284064,15.719519032628929
13.811940451389148,16.106212805937602,19.638897504306186,21.93116764446295,16.940078907212893,17.055107515708286,17.612415102687915,15.401598178630968,15.80702954367523
13.877265558369649,16.194590562008276,19.738923553514574,22.03022186819745,17.023829717897303,17.141049226239335,17.692869514338543,15.479369054337361,15.893430430408035
13.94157909690147,16.281877388453985,19.837476041517643,22.127485642988034,17.106368553505497,17.225811214436643,17.771887537619072,15.556005760296095,15.978710397054847
14.004870396812928,16.368058210061044,19.934539784198545,22.222948434624314,17.187682661588944,17.309380200943895,17.849460842785618,15.631498383749687,16.06285822922737
14.067128922672982,16.453118079131322,20.030099780424873,22.316599898694275,17.2677594341438,17.39174303694504,17.925581235639033,15.705837111517031,16.14586279745992
14.128344277389433,16.537042180265825,20.12414121687681,22.408429884004132,17.346586411766694,17.472886708392544,18.000240660310943,15.779012233232072,16.227713060766707
14.188506205781493,16.61981583513407,20.2166494728493,22.498428435987616,17.42415128778745,17.55279834021761,18.073431202054522,15.851014144592353,16.308398070215716
14.24760459812423,16.701424507226502,20.307610125024695,22.586585800101425,17.50044191237572,17.631465200519607,18.14514509003758,15.92183335061532,16.38790697251682
14.305629493662336,16.781853806587073,20.397008952212367,22.67289242520371,17.57544629661847,17.70887470473187,18.21537470013561,15.991460468900252,16.46622901362174
14.362571084090698,16.861089494523107,20.48483194005182,22.757338966912496,17.649152616565363,17.78501441976117,18.284112557722402,16.05988623289365,16.543353542333364
14.418419716999315,16.939117488289646,20.57106528567609,22.839916290941076,17.721549217239165,17.859872068098344,18.351351340456127,16.127101495155873,16.61927001392204
14.473165899280156,17.01592386574545,20.655695402332434,22.920615476407683,17.792624616608457,17.93343553189774,18.417083881058705,16.19309723062687,16.693967993746277
14.526800300493608,17.091494869977925,20.738708923957432,22.9994278191169,17.862367509520062,18.005692857023234,18.481303170086534,16.25786453988869,16.76743716087542
14.579313756192192,17.165816913894353,20.820092709703943,23.076344834810342,17.930766771588747,18.07663225705875,18.544002358690687,16.321394652422587,16.839667311711768
14.630697271199246,17.238876584776957,20.89983384841747,23.151358262384367,17.997811463041767,18.146242117281304,18.605174761364708,16.383678929858302,16.910648363609713
14.680942022840318,17.310660648799423,20.977919663059655,23.224460067072407,18.063490832515953,18.214510998594587,18.664813858678194,16.44470886921327,16.980370358489495
14.730039364125096,17.38115605550261,21.054337715076688,23.295642443589802,18.12779432080507,18.281427641421256,18.72291329999432,16.504476106119384,17.048823466443245
14.777980826877705,17.450349942227287,21.129075808710386,23.36489781923888,18.190711564555333,18.34698096955218,18.779466906169482,16.562972418034978,17.115997989330992
14.82475812481329,17.518229638501747,21.202121995249875,23.4322188569721,18.252232399906983,18.411160093950997,18.83446867223331,16.620189727439733,17.181884364364464
14.870363156558831,17.58478267038228,21.273464577221652,23.497598458411282,18.312346866079956,18.473954316512287,18.887912770047233,16.67612010501023,17.246473167676594
14.914788008616185,17.649996764744376,21.34309211251596,23.561029766820816,18.371045208901723,18.53535313377196,18.939793550939882,16.730755772773946,17.3097551178746
14.958024958265362,17.713859853522752,21.410993418447497,23.62250617003289,18.428317884275494,18.59534624056834,18.990105548317633,16.784089107239595,17.371721079574677
15.000066476406156,17.776360077898165,21.477157575748397,23.682021303322887,18.48415556158698,18.65392353365258,19.03884348024861,16.836112642501707,17.43236206691628
15.04090523033646,17.837485792429128,21.541573932491623,23.739569052232984,18.538549127048064,18.711075115247052,19.086002252018485,16.886819073317447,17.49166924705416
15.080534086465699,17.897225569126586,21.60423210794275,23.79514355534206,18.59148968697568,18.76679129655038,19.13157695865638,16.936201258153666,17.549633943626205
15.118946112962073,17.955568201469813,21.665121996338257,23.848739206980213,18.64296857100434,18.82106260118792,19.175562887429138,16.984252222202212,17.606247640195495
15.15613458233246,18.012502708361808,21.72423377058859,23.900350659886065,18.692977335230843,18.87387976860635,19.21795552030225,17.03096516036161,17.66150198366476
15.192092973934056,18.068018338022593,21.781557885904313,23.949972827805535,18.74150776528984,18.92523375741119,19.258750536365913,17.076333440183348,17.71538878766163
15.226814976416984,18.122104571819058,21.83708508334389,23.997600888030444,18.788551879358895,18.97511574864594,19.297943814224553,17.120350604781066,17.76790003589292
15.260294490097223,18.174751128029943,21.89080639328172,24.043230283875804,18.834101931091965,19.023517149011745,19.33553143434844,17.16301037570105,17.819027885466223
15.292525629259286,18.22594796554477,21.942713138795174,24.086856727094514,18.87815041248006,19.070429594026326,19.371509681385938,17.20430665575239,17.868764670177065
15.323502724388101,18.275685287495463,21.992796938969494,24.1284762002284,18.920690056638044,19.11584495112101,19.40587504643498,17.244233531795302,17.91710290375988
15.35322032432951,18.323953544819418,22.041049712119523,24.168084958894443,18.961713840516428,19.159755322674624,19.438624229272317,17.28278527748595,17.96403528310102
15.381673198378875,18.370743439752804,22.08746367892713,24.205679534005228,19.00121498753716,19.20215304898313,19.469754140539063,17.319956355976142,18.009554691412053
15.408856338297367,18.416045929252896,22.13203136549332,24.241256733922498,19.03918697015238,19.243030711163826,19.499261903881123,17.35574142256625,18.053654201361567
15.434764960255421,18.45985222834811,22.17474560630401,24.274813646542903,19.07562351232522,19.282381133993088,19.527144858043197,17.390135327309785,18.096327078163696
15.459394506702981,18.50215381341456,22.215599547108432,24.306347641314986,19.11051859193195,19.32019738867666,19.553400558914984,17.42313311756807,18.13756678262164
15.482740648166162,18.542942425377838,22.254586647709125,24.335856371186534,19.14386644308465,19.356472795551536,19.57802678152835,17.454730040513468,18.177366974124368
15.504799284969883,18.582210072838954,22.291700684662597,24.36333777448151,19.17566155837392,19.391200926718437,19.60102152200423,17.484921545579645,18.21572151359475
15.525566548886122,18.61994903512298,22.326935753889607,24.3887900767058,19.205898691031106,19.424375608603995,19.622382999447975,17.51370328685736,18.252624466387342
15.545038804707369,18.656151865249278,22.36028627319403,24.412211792281056,19.234572857009713,19.4559909244517,19.642109657791956,17.541071125434264,18.288070105134064
15.56321265174489,18.690811392822027,22.391746984689316,24.433601726206053,19.26167933698565,19.486041216740713,19.66020016758417,17.5670211316773,18.322052912536137
15.58008492525149,18.723920726839697,22.421312957131384,24.45295897564491,19.28721367827609,19.514521089531716,19.67665342772166,17.591549587456292,18.354567584100565
15.595652697768479,18.755473258422317,22.448979588157002,24.470282931441478,19.311171696676688,19.541425410739006,19.69146856712765,17.614652988307398,18.385609030819616
15.609913280396471,18.78546266345534,22.474742606426634,24.48557327955933,19.333549478217055,19.56674931432801,19.70464494637121,17.636328045535276,18.415172381791688
15.622864223989765,18.81388290514894,22.49859807367088,24.498830002446727,19.35434338083422,19.5904882024375,19.71618215922861,17.65657168825279,18.443252986782106
15.634503320274055,18.84072823651159,22.520542386639548,24.510053380326,19.37355003596397,19.612637747425786,19.726080034185426,17.675381065357254,18.46984641872247
15.644828602887275,18.865993202736842,22.54057227895239,24.519243992406793,19.39116635004991,19.633193893840197,19.73433863587859,17.692753547442198,18.49494847614725
15.653838348343415,18.889672643502152,22.558684822850672,24.52640271802267,19.407189505970063,19.652152860309073,19.74095826647756,17.708686728643737,18.51855518556644
15.66153107691919,18.91176169517868,22.574877430848684,24.53153073769056,19.4216169643809,19.669511141355603,19.74593946700376,17.72317842842057,18.540662803773014
15.667905553463434,18.932255792950862,22.58914785728426,24.534629534092495,19.434446464978617,19.68526550913278,19.749283018587477,17.736226693266687,18.561267820083955
15.672960788129108,18.95115067284469,22.601494199767377,24.535700892979104,19.445676027677514,19.699413015078676,19.750989943661455,17.74782979835584,18.580366958513693
15.676696037027792,18.968442373663542,22.611914900525875,24.534746903994225,19.45530395370531,19.71195099149136,19.751061507090345,17.757986249116943,18.59795717987872
15.67911080280657,18.984127238830453,22.620408747647243,24.531769961420043,19.46332882661532,19.72287705302265,19.7494992172352,17.766694782739457,18.614035683832324
15.680204835147137,18.998201918135727,22.626974876215478,24.526772764842093,19.469749513215216,19.732189098089915,19.746304826952237,17.77395436960812,18.628599910828342
15.679978131187022,19.010663369388705,22.631612769342,24.51975831973349,19.474565164412276,19.73988531020511,19.741480334524926,17.779764214666223,18.641647544013026
15.678430935862716,19.021508859972496,22.6343222590896,24.51072993795775,19.477775215974926,19.74596415922022,19.735027984528635,17.78412375870679,18.653176511044034
15.675563742174521,19.030735968300522,22.635103527288535,24.49969123818957,19.47937938921036,19.750424402488264,19.726950268626823,17.787032679590993,18.66318498583563
15.671377291372865,19.038342585173655,22.633957106243965,24.486646146253072,19.479377691558103,19.753265085939,19.717249926297924,17.788490893393156,18.67167139022917
15.665872573065853,19.04432691503675,22.630883879334043,24.471598895376864,19.47777041709934,19.754485545068544,19.70592994549193,17.788498555471723,18.67863439558786
15.65905082524776,19.048687477133377,22.62588508149798,24.454554026365503,19.474558146981828,19.75408540584202,19.692993563215705,17.7870560614655,18.684072924314805
15.650913534248215,19.051423106557575,22.618962299613486,24.435516387686764,19.469741749760097,19.752064585508347,19.67844426604599,17.78416404821444,18.68798615129334
15.641462434601713,19.05253295520127,22.610117472762905,24.414491135474233,19.463322381650677,19.748423293326226,19.662285790569136,17.779823394604286,18.69037350524858
15.630699508837154,19.052016492596096,22.599352892387515,24.391483733444552,19.45530148670203,19.743162031200452,19.644522123746434,17.77403522233432,18.691234670029164
15.618626987187023,19.04987350664834,22.5866712023294,24.36649995272872,19.445680796878797,19.73628159422755,19.625157503204015,17.766800896607457,18.69056958580823
15.605247347215942,19.046104104265616,22.572075398760255,24.339545871616867,19.43446233205994,19.727783071149876,19.604196417446293,17.75812202674193,18.68837845020251
15.590563313368293,19.04070871187396,22.55556882999649,24.310627875215733,19.421648399950342,19.71766784471725,19.581643605991868,17.74800046670378,18.68466171930871
15.574577856434697,19.033688075823893,22.537155196199823,24.279752655018168,19.407241595905358,19.705937591955326,19.55750405943088,17.736438315559326,18.67942010865614
15.55729419293713,19.02504326268423,22.516838548962696,24.246927208383802,19.391244802667863,19.692594284339794,19.531783019402706,17.723437917846823,18.67265459407459
15.538715784432496,19.0147756594222,22.49462329077759,24.21215883793009,19.373661190017216,19.67764018787566,19.50448597849297,17.70900186386639,18.66436641247651
15.518846336734526,19.002886973468534,22.470514174389425,24.17545515083271,19.354494214329605,19.661077863080763,19.475618680048726,17.69313298988733,18.65455706255237
15.49768979905381,18.989379232666113,22.444516302030177,24.13682405803451,19.333747618049166,19.64291016487284,19.445187117910823,17.675834378271944,18.64322830537825
15.475250363055858,18.974254785100754,22.416635124534785,24.096273773361986,19.311425429069345,19.62314024235935,19.41319753606228,17.657109357514905,18.63038216493454
15.45153246183705,18.95751629881282,22.3868764403376,24.053812812548365,19.28753196002395,19.601771538529324,19.379656428191605,17.636961502197313,18.61602092853478
15.426540768818338,18.939166761388215,22.35524639434857,24.00944999216244,19.26207180748735,19.578807789846387,19.344570537169886,17.61539463285444,18.60014714716356
15.400280196556563,18.919209479427515,22.321751476708442,23.96319442844231,19.23504985108337,19.55425302574221,19.307946854440548,17.59241281575626,18.58276363572251
15.372755895473324,18.897648077892022,22.286398521422324,23.915055536033147,19.206471252502524,19.528111568009546,19.269792619320608,17.568020362599785,18.563873473183406
15.34397325250122,18.874486499325876,22.24919470487093,23.865043026628154,19.17634145442711,19.500388030094136,19.230115318212476,17.54222183011228,18.54348000264748
15.313937889647372,18.849729002953588,22.210147544199195,23.813166907511945,19.144666179363973,19.471087316284713,19.18892268372528,17.515022019564416,18.521586831310188
15.282655662474145,18.823380163652704,22.16926489558193,23.759437480005616,19.1114514283845,19.440214620800386,19.146222693704825,17.486425976192493,18.498197830330604
15.250132658497042,18.79544487080151,22.126554952366593,23.703865337812886,19.076703479771645,19.407775426774688,19.102023570171262,17.456438988528866,18.473317134604798
15.21637519549988,18.765928327001905,22.082026243093356,23.646461365266905,19.040428887573828,19.37377550513567,19.056333778163715,17.425066587639904,18.44694914244253
15.181389819767459,18.73483604667773,22.035687629392918,23.587236735477386,19.00263448006553,19.33822091338152,19.009162024491093,17.39231454627088,18.419098515146665
15.145183304236028,18.70217385454911,21.9875483037625,23.526202908377886,18.963327358114803,19.30111799425156,18.96051725638863,17.358188877897447,18.3897701764949
15.107762646562064,18.66794788398349,21.93761778722082,23.463371628673155,18.922514893457908,19.262473374292732,18.910408660079728,17.32269583568346,18.358969312123484
15.069135067109938,18.63216457522456,21.88590592684275,23.398754923686692,18.88020472688141,19.222293962322237,18.85884565924302,17.285841911345198,18.32670136881277
15.029308006859267,18.59483067350036,21.832422893174922,23.332365101108774,18.836404766312228,19.18058694778708,18.80583791338464,17.247633833922116,18.29297205367451
14.988289125232862,18.555953227012374,21.777179177533526,23.264214746645514,18.79112318481645,19.137359799021652,18.751395316115925,17.208078568454596,18.257787333241044
14.946086297846467,18.515539584807538,21.72018558918593,23.19431672156986,18.744368418507868,19.092620261404335,18.695527993336942,17.167183314569176,18.221153432456635
14.902707614181628,18.473597394535282,21.66145325241784,23.122684160175538,18.696149164367515,19.04637635541426,18.63824630132642,17.124955504971897,18.18307683357125
14.858161375183103,18.430134600091737,21.600993603487787,23.04933046713534,18.646474377975434,18.99863637458929,18.579560824738955,17.08140280385055,18.143564274937223
14.812456090782364,18.385159439153213,21.538818387470794,22.974269314765206,18.59535327115611,18.94940888338635,18.519482374510353,17.036533105186663,18.102622749709326
14.76560047734887,18.338680440601202,21.47493965499329,22.897514640195713,18.54279530953897,18.8987027149453,18.458021985672126,16.9903545309781,18.060259504448794
